Timestamp,ECG_1,ECG_MV_1,PPG_GREEN,LEAD_OFF,MAX_TH,MIN_TH,MAX_TH_MV,MIN_TH_MV,SEQUENCE,ECG_2,ECG_MV_2,ECG_3,ECG_MV_3,ECG_4,ECG_MV_4,ECG_5,ECG_MV_5, 
1684327068792,2800252,-9999.0,128989,5,2799279,-2799279,0.0,0.0,0,2800252,-9999.0,2800252,-9999.0,2800252,-9999.0,2800252,-9999.0,
1684327068865,2777977,-9999.0,128989,5,2799279,-2799279,0.0,0.0,1,2526880,-9999.0,2121149,-9999.0,1623619,-9999.0,1257377,-9999.0,
1684327068874,953576,-9999.0,128924,5,2799279,-2799279,0.0,0.0,2,697812,-9999.0,486156,-9999.0,312984,-9999.0,166232,-9999.0,
1684327068886,43726,-9999.0,128904,5,2799279,-2799279,0.0,0.0,3,-61294,-9999.0,-153549,-9999.0,-231723,-9999.0,-298595,-9999.0,
1684327068898,-355430,-9999.0,128926,5,2799279,-2799279,0.0,0.0,4,-405889,-9999.0,-446684,-9999.0,-479239,-9999.0,-503693,-9999.0,
1684327068909,-525579,-9999.0,128896,5,2799279,-2799279,0.0,0.0,5,-544378,-9999.0,-561660,-9999.0,-581308,-9999.0,-594166,-9999.0,
1684327068923,-605562,-9999.0,128860,5,2799279,-2799279,0.0,0.0,6,-617996,-9999.0,-623917,-9999.0,-630395,-9999.0,-630226,-9999.0,
1684327068936,-630346,-9999.0,128890,5,2799279,-2799279,0.0,0.0,7,-631373,-9999.0,-632678,-9999.0,-637245,-9999.0,-642018,-9999.0,
1684327068945,-641134,-9999.0,128883,5,2799279,-2799279,0.0,0.0,8,-644691,-9999.0,-642769,-9999.0,-640116,-9999.0,-634087,-9999.0,
1684327068960,-617690,-9999.0,128829,5,2799279,-2799279,0.0,0.0,9,-605829,-9999.0,-605446,-9999.0,-610175,-9999.0,-618863,-9999.0,
1684327068972,-624923,-9999.0,128810,5,2799279,-2799279,0.0,0.0,10,-629908,-9999.0,-631903,-9999.0,-635963,-9999.0,-638556,-9999.0,
1684327068983,-641084,-9999.0,128856,5,2799279,-2799279,0.0,0.0,11,-639604,-9999.0,-640762,-9999.0,-643776,-9999.0,-647053,-9999.0,
1684327068999,-652049,-9999.0,128877,5,2799279,-2799279,0.0,0.0,12,-655755,-9999.0,-656129,-9999.0,-657986,-9999.0,-659159,-9999.0,
1684327069008,-658332,-9999.0,128883,5,2799279,-2799279,0.0,0.0,13,-661493,-9999.0,-658467,-9999.0,-661947,-9999.0,-664685,-9999.0,
1684327069025,-666472,-9999.0,128926,5,2799279,-2799279,0.0,0.0,14,-671544,-9999.0,-666895,-9999.0,-665272,-9999.0,-664458,-9999.0,
1684327069039,-662309,-9999.0,128904,5,2799279,-2799279,0.0,0.0,15,-662124,-9999.0,-662389,-9999.0,-662137,-9999.0,-666245,-9999.0,
1684327069059,-667906,-9999.0,128856,5,2799279,-2799279,0.0,0.0,16,-671795,-9999.0,-673213,-9999.0,-670200,-9999.0,-669806,-9999.0,
1684327069073,-667378,-9999.0,128915,5,2799279,-2799279,0.0,0.0,17,-666600,-9999.0,-669419,-9999.0,-670443,-9999.0,-671479,-9999.0,
1684327069084,-672875,-9999.0,128890,5,2799279,-2799279,0.0,0.0,18,-676284,-9999.0,-675775,-9999.0,-677717,-9999.0,-673945,-9999.0,
1684327069093,-671374,-9999.0,128936,5,2799279,-2799279,0.0,0.0,19,-670889,-9999.0,-670899,-9999.0,-674871,-9999.0,-675870,-9999.0,
1684327069102,-676479,-9999.0,128902,5,2799279,-2799279,0.0,0.0,20,-680046,-9999.0,-678728,-9999.0,-675769,-9999.0,-678253,-9999.0,
1684327069112,-670774,-9999.0,128955,5,2799279,-2799279,0.0,0.0,21,-668663,-9999.0,-665224,-9999.0,-435041,-9999.0,245216,-9999.0,
1684327069122,455820,-9999.0,128979,5,2799279,-2799279,0.0,0.0,22,513343,-9999.0,535911,-9999.0,535939,-9999.0,543821,-9999.0,
1684327069134,548804,-9999.0,128977,5,2799279,-2799279,0.0,0.0,23,548638,-9999.0,553058,-9999.0,558211,-9999.0,558899,-9999.0,
1684327069145,555567,-9999.0,128981,0,2799279,-2799279,0.0,0.0,24,554986,-9999.0,552856,-9999.0,551959,-9999.0,552561,-9999.0,
1684327069156,555304,-9999.0,128943,0,2799279,-2799279,0.0,0.0,25,554990,-9999.0,554850,-9999.0,554595,-9999.0,554799,-9999.0,
1684327069166,558350,-9999.0,129023,0,2799279,-2799279,0.0,0.0,26,562816,-9999.0,564466,-9999.0,564763,-9999.0,564184,-9999.0,
1684327069177,561909,-9999.0,129000,0,2799279,-2799279,0.0,0.0,27,558856,-9999.0,557222,-9999.0,556239,-9999.0,555172,-9999.0,
1684327069187,554728,-9999.0,128989,0,2799279,-2799279,0.0,0.0,28,554861,-9999.0,554569,-9999.0,554614,-9999.0,554610,-9999.0,
1684327069200,554716,-9999.0,129043,0,2799279,-2799279,0.0,0.0,29,554833,-9999.0,554803,-9999.0,554997,-9999.0,555229,-9999.0,
1684327069211,555018,-9999.0,129040,0,2799279,-2799279,0.0,0.0,30,554599,-9999.0,554324,-9999.0,553831,-9999.0,553281,-9999.0,
1684327069223,552797,-9999.0,129074,0,2799279,-2799279,0.0,0.0,31,552283,-9999.0,551797,-9999.0,551590,-9999.0,551240,-9999.0,
1684327069234,551137,-9999.0,129085,0,2799279,-2799279,0.0,0.0,32,550914,-9999.0,550715,-9999.0,550594,-9999.0,550005,-9999.0,
1684327069245,549604,-9999.0,129085,0,2799279,-2799279,0.0,0.0,33,549595,-9999.0,549448,-9999.0,548958,-9999.0,548624,-9999.0,
1684327069257,548441,-9999.0,129085,0,2799279,-2799279,0.0,0.0,34,548374,-9999.0,548240,-9999.0,547989,-9999.0,547928,-9999.0,
1684327069268,547831,-9999.0,129115,0,2799279,-2799279,0.0,0.0,35,547517,-9999.0,547020,-9999.0,546744,-9999.0,546442,-9999.0,
1684327069281,546130,-9999.0,129106,0,2799279,-2799279,0.0,0.0,36,546126,-9999.0,546082,-9999.0,545625,-9999.0,545595,-9999.0,
1684327069291,546134,-9999.0,129139,0,2799279,-2799279,0.0,0.0,37,546462,-9999.0,546998,-9999.0,547571,-9999.0,547314,-9999.0,
1684327069301,547848,-9999.0,129171,0,2799279,-2799279,0.0,0.0,38,548254,-9999.0,548949,-9999.0,549259,-9999.0,549642,-9999.0,
1684327069311,549801,-9999.0,255545,0,2799279,-2799279,0.0,0.0,39,549929,-9999.0,550913,-9999.0,550633,-9999.0,549789,-9999.0,
1684327069319,548710,-9999.0,255630,0,2799279,-2799279,0.0,0.0,40,547823,-9999.0,546406,-9999.0,544776,-9999.0,543977,-9999.0,
1684327069328,542881,-9999.0,255736,0,2799279,-2799279,0.0,0.0,41,542091,-9999.0,541931,-9999.0,541834,-9999.0,541791,-9999.0,
1684327069337,541579,-9999.0,255717,0,2799279,-2799279,0.0,0.0,42,541444,-9999.0,541579,-9999.0,541424,-9999.0,541589,-9999.0,
1684327069345,541456,-9999.0,255770,0,2799279,-2799279,0.0,0.0,43,541604,-9999.0,541743,-9999.0,541863,-9999.0,542058,-9999.0,
1684327069354,542609,-9999.0,255815,0,2799279,-2799279,0.0,0.0,44,543670,-9999.0,543929,-9999.0,544018,-9999.0,544049,-9999.0,
1684327069361,544028,-9999.0,255864,0,2799279,-2799279,0.0,0.0,45,544400,-9999.0,545433,-9999.0,545374,-9999.0,545642,-9999.0,
1684327069370,545777,-9999.0,255835,0,2799279,-2799279,0.0,0.0,46,545944,-9999.0,546255,-9999.0,546792,-9999.0,546672,-9999.0,
1684327069378,546763,-9999.0,256056,0,2799279,-2799279,0.0,0.0,47,546861,-9999.0,546910,-9999.0,546994,-9999.0,546590,-9999.0,
1684327069387,546496,-9999.0,256112,0,2799279,-2799279,0.0,0.0,48,546295,-9999.0,546138,-9999.0,545798,-9999.0,545487,-9999.0,
1684327069395,545400,-9999.0,256351,0,2799279,-2799279,0.0,0.0,49,545258,-9999.0,545036,-9999.0,544822,-9999.0,544434,-9999.0,
1684327069403,544248,-9999.0,256421,0,2799279,-2799279,0.0,0.0,50,544491,-9999.0,544284,-9999.0,544088,-9999.0,544123,-9999.0,
1684327069414,543879,-9999.0,256553,0,2799279,-2799279,0.0,0.0,51,543543,-9999.0,543404,-9999.0,544229,-9999.0,543670,-9999.0,
1684327069428,543510,-9999.0,256785,0,2799279,-2799279,0.0,0.0,52,543917,-9999.0,543790,-9999.0,543897,-9999.0,544208,-9999.0,
1684327069437,544496,-9999.0,652657,0,2799279,-2799279,0.0,0.0,53,544462,-9999.0,544945,-9999.0,545403,-9999.0,545778,-9999.0,
1684327069445,546293,-9999.0,653033,0,2799279,-2799279,0.0,0.0,54,546557,-9999.0,546598,-9999.0,546410,-9999.0,546815,-9999.0,
1684327069458,547015,-9999.0,653337,0,2799279,-2799279,0.0,0.0,55,547226,-9999.0,547330,-9999.0,547635,-9999.0,547815,-9999.0,
1684327069466,548145,-9999.0,653678,0,2799279,-2799279,0.0,0.0,56,548643,-9999.0,548421,-9999.0,548313,-9999.0,548640,-9999.0,
1684327069474,549424,-9999.0,653937,0,2799279,-2799279,0.0,0.0,57,549003,-9999.0,548962,-9999.0,549097,-9999.0,549202,-9999.0,
1684327069481,549427,-9999.0,654295,0,2799279,-2799279,0.0,0.0,58,549730,-9999.0,549869,-9999.0,550434,-9999.0,550436,-9999.0,
1684327069495,550456,-9999.0,654343,0,2799279,-2799279,0.0,0.0,59,550872,-9999.0,551028,-9999.0,551057,-9999.0,551129,-9999.0,
1684327069502,551011,-9999.0,654269,0,2799279,-2799279,0.0,0.0,60,551450,-9999.0,551912,-9999.0,551983,-9999.0,552019,-9999.0,
1684327069517,552092,-9999.0,654000,0,2799279,-2799279,0.0,0.0,61,551957,-9999.0,551845,-9999.0,551626,-9999.0,551684,-9999.0,
1684327069537,551575,-9999.0,653802,0,2799279,-2799279,0.0,0.0,62,551371,-9999.0,550797,-9999.0,550535,-9999.0,549942,-9999.0,
1684327069550,549355,-9999.0,653505,0,2799279,-2799279,0.0,0.0,63,549241,-9999.0,548688,-9999.0,548200,-9999.0,548061,-9999.0,
1684327069563,547416,-9999.0,653572,0,2799279,-2799279,0.0,0.0,64,547263,-9999.0,547051,-9999.0,546824,-9999.0,546279,-9999.0,
1684327069576,546116,-9999.0,653644,0,2799279,-2799279,0.0,0.0,65,546707,-9999.0,547086,-9999.0,546926,-9999.0,546727,-9999.0,
1684327069587,546516,-9999.0,653800,0,2799279,-2799279,0.0,0.0,66,546608,-9999.0,546674,-9999.0,546437,-9999.0,546602,-9999.0,
1684327069604,546687,-9999.0,653845,0,2799279,-2799279,0.0,0.0,67,546648,-9999.0,546729,-9999.0,546880,-9999.0,546731,-9999.0,
1684327069617,546676,-9999.0,653922,0,2799279,-2799279,0.0,0.0,68,546508,-9999.0,546716,-9999.0,545955,-9999.0,546289,-9999.0,
1684327069636,546891,-9999.0,653852,0,2799279,-2799279,0.0,0.0,69,546832,-9999.0,546554,-9999.0,546350,-9999.0,546331,-9999.0,
1684327069653,545973,-9999.0,653979,0,2799279,-2799279,0.0,0.0,70,545927,-9999.0,545714,-9999.0,545571,-9999.0,544958,-9999.0,
1684327069665,545048,-9999.0,654180,0,2799279,-2799279,0.0,0.0,71,545128,-9999.0,545156,-9999.0,545003,-9999.0,544611,-9999.0,
1684327069679,544681,-9999.0,654595,0,2799279,-2799279,0.0,0.0,72,544519,-9999.0,544279,-9999.0,544283,-9999.0,544338,-9999.0,
1684327069693,544235,-9999.0,655046,0,2799279,-2799279,0.0,0.0,73,543893,-9999.0,544342,-9999.0,545176,-9999.0,544773,-9999.0,
1684327069713,544821,-9999.0,655617,0,2799279,-2799279,0.0,0.0,74,544913,-9999.0,544910,-9999.0,544884,-9999.0,544750,-9999.0,
1684327069723,544760,-9999.0,656172,0,2799279,-2799279,0.0,0.0,75,544825,-9999.0,544814,-9999.0,544268,-9999.0,544235,-9999.0,
1684327069734,544515,-9999.0,656711,0,2799279,-2799279,0.0,0.0,76,544342,-9999.0,544105,-9999.0,543845,-9999.0,543660,-9999.0,
1684327069750,543846,-9999.0,657008,0,2799279,-2799279,0.0,0.0,77,543743,-9999.0,543682,-9999.0,543590,-9999.0,543315,-9999.0,
1684327069760,544100,-9999.0,657409,0,2799279,-2799279,0.0,0.0,78,543871,-9999.0,543857,-9999.0,543908,-9999.0,543706,-9999.0,
1684327069769,543623,-9999.0,657509,0,2799279,-2799279,0.0,0.0,79,543775,-9999.0,543709,-9999.0,543976,-9999.0,543953,-9999.0,
1684327069780,543924,-9999.0,657705,0,2799279,-2799279,0.0,0.0,80,543737,-9999.0,543895,-9999.0,543472,-9999.0,544164,-9999.0,
1684327069790,543970,-9999.0,657989,0,2799279,-2799279,0.0,0.0,81,543937,-9999.0,543879,-9999.0,543806,-9999.0,543974,-9999.0,
1684327069800,543914,-9999.0,658191,0,2799279,-2799279,0.0,0.0,82,543835,-9999.0,543845,-9999.0,543285,-9999.0,543389,-9999.0,
1684327069811,543106,-9999.0,658339,0,2799279,-2799279,0.0,0.0,83,543037,-9999.0,542768,-9999.0,542220,-9999.0,542091,-9999.0,
1684327069822,542308,-9999.0,658697,0,2799279,-2799279,0.0,0.0,84,542334,-9999.0,541974,-9999.0,541799,-9999.0,541904,-9999.0,
1684327069834,542063,-9999.0,658897,0,2799279,-2799279,0.0,0.0,85,541926,-9999.0,542210,-9999.0,541982,-9999.0,542086,-9999.0,
1684327069846,542218,-9999.0,659060,0,2799279,-2799279,0.0,0.0,86,542437,-9999.0,542288,-9999.0,542214,-9999.0,542423,-9999.0,
1684327069859,542951,-9999.0,659279,0,2799279,-2799279,0.0,0.0,87,542788,-9999.0,542183,-9999.0,542166,-9999.0,542487,-9999.0,
1684327069865,542647,-9999.0,659424,0,2799279,-2799279,0.0,0.0,88,543419,-9999.0,543630,-9999.0,542736,-9999.0,542468,-9999.0,
1684327069880,542051,-9999.0,659552,0,2799279,-2799279,0.0,0.0,89,542357,-9999.0,542695,-9999.0,542457,-9999.0,542365,-9999.0,
1684327069890,542218,-9999.0,659621,0,2799279,-2799279,0.0,0.0,90,542541,-9999.0,542274,-9999.0,542146,-9999.0,541993,-9999.0,
1684327069900,541911,-9999.0,659757,0,2799279,-2799279,0.0,0.0,91,542109,-9999.0,541871,-9999.0,541880,-9999.0,542117,-9999.0,
1684327069909,541830,-9999.0,659752,0,2799279,-2799279,0.0,0.0,92,541787,-9999.0,541728,-9999.0,541989,-9999.0,542181,-9999.0,542485,-9999.0,542756,-9999.0,542833,-9999.0,543140,-9999.0,543313,-9999.0,
1684327069924,543635,-9999.0,659772,0,2799279,-2799279,0.0,0.0,93,544128,-9999.0,544686,-9999.0,545065,-9999.0,545371,-9999.0,
1684327069937,545948,-9999.0,659670,0,2799279,-2799279,0.0,0.0,94,547816,-9999.0,550145,-9999.0,551283,-9999.0,553076,-9999.0,
1684327069946,554720,-9999.0,659774,0,2799279,-2799279,0.0,0.0,95,554800,-9999.0,555300,-9999.0,558195,-9999.0,559584,-9999.0,
1684327069953,561604,-9999.0,660008,0,2799279,-2799279,0.0,0.0,96,563179,-9999.0,563941,-9999.0,565506,-9999.0,566159,-9999.0,
1684327069962,567276,-9999.0,660222,0,2799279,-2799279,0.0,0.0,97,567096,-9999.0,568782,-9999.0,568822,-9999.0,568410,-9999.0,
1684327069981,568300,-9999.0,660637,0,2799279,-2799279,0.0,0.0,98,568476,-9999.0,568494,-9999.0,568217,-9999.0,569077,-9999.0,
1684327069990,569055,-9999.0,660925,0,2799279,-2799279,0.0,0.0,99,569374,-9999.0,570123,-9999.0,570681,-9999.0,570931,-9999.0,
1684327069996,571243,-9999.0,661206,0,2799279,-2799279,0.0,0.0,100,571647,-9999.0,571576,-9999.0,571336,-9999.0,572400,-9999.0,
1684327070003,572776,-9999.0,661452,0,2799279,-2799279,0.0,0.0,101,573120,-9999.0,573826,-9999.0,574213,-9999.0,574358,-9999.0,
1684327070011,574370,-9999.0,661452,0,2799279,-2799279,0.0,0.0,102,574116,-9999.0,573643,-9999.0,573416,-9999.0,572435,-9999.0,
1684327070019,571584,-9999.0,661534,0,2799279,-2799279,0.0,0.0,103,570231,-9999.0,569849,-9999.0,569111,-9999.0,568408,-9999.0,
1684327070025,567789,-9999.0,661734,0,2799279,-2799279,0.0,0.0,104,567218,-9999.0,566834,-9999.0,566348,-9999.0,566137,-9999.0,
1684327070033,565660,-9999.0,662035,0,2799279,-2799279,0.0,0.0,105,565440,-9999.0,565100,-9999.0,564594,-9999.0,563908,-9999.0,
1684327070041,563060,-9999.0,662485,0,2799279,-2799279,0.0,0.0,106,562802,-9999.0,561701,-9999.0,561096,-9999.0,560825,-9999.0,
1684327070048,560278,-9999.0,663039,0,2799279,-2799279,0.0,0.0,107,560070,-9999.0,560038,-9999.0,559725,-9999.0,559294,-9999.0,
1684327070060,559506,-9999.0,663581,0,2799279,-2799279,0.0,0.0,108,559914,-9999.0,559701,-9999.0,559705,-9999.0,559848,-9999.0,
1684327070066,559787,-9999.0,664135,0,2799279,-2799279,0.0,0.0,109,559903,-9999.0,560066,-9999.0,560222,-9999.0,560010,-9999.0,
1684327070074,559868,-9999.0,664298,0,2799279,-2799279,0.0,0.0,110,559640,-9999.0,559653,-9999.0,559815,-9999.0,559179,-9999.0,
1684327070083,559218,-9999.0,664223,0,2799279,-2799279,0.0,0.0,111,559293,-9999.0,559142,-9999.0,558804,-9999.0,558907,-9999.0,
1684327070090,559008,-9999.0,664251,0,2799279,-2799279,0.0,0.0,112,558755,-9999.0,558568,-9999.0,558047,-9999.0,557855,-9999.0,
1684327070096,558118,-9999.0,664319,0,2799279,-2799279,0.0,0.0,113,558188,-9999.0,558156,-9999.0,558325,-9999.0,558457,-9999.0,
1684327070104,559293,-9999.0,664110,0,2799279,-2799279,0.0,0.0,114,559657,-9999.0,560049,-9999.0,560221,-9999.0,560636,-9999.0,
1684327070112,561129,-9999.0,664240,0,2799279,-2799279,0.0,0.0,115,562195,-9999.0,562845,-9999.0,563290,-9999.0,563330,-9999.0,
1684327070120,564013,-9999.0,664340,0,2799279,-2799279,0.0,0.0,116,563893,-9999.0,563466,-9999.0,563198,-9999.0,562384,-9999.0,
1684327070126,561185,-9999.0,664404,0,2799279,-2799279,0.0,0.0,117,559628,-9999.0,558192,-9999.0,557407,-9999.0,556284,-9999.0,
1684327070134,556403,-9999.0,664573,0,2799279,-2799279,0.0,0.0,118,556152,-9999.0,555631,-9999.0,555710,-9999.0,555480,-9999.0,
1684327070142,555336,-9999.0,664739,0,2799279,-2799279,0.0,0.0,119,555128,-9999.0,554902,-9999.0,554889,-9999.0,554636,-9999.0,
1684327070148,554401,-9999.0,664803,0,2799279,-2799279,0.0,0.0,120,554258,-9999.0,553824,-9999.0,553927,-9999.0,554037,-9999.0,
1684327070156,553772,-9999.0,664912,0,2799279,-2799279,0.0,0.0,121,553400,-9999.0,553346,-9999.0,553186,-9999.0,552979,-9999.0,
1684327070163,553103,-9999.0,664990,0,2799279,-2799279,0.0,0.0,122,553083,-9999.0,552600,-9999.0,552684,-9999.0,552653,-9999.0,
1684327070169,552733,-9999.0,665049,0,2799279,-2799279,0.0,0.0,123,552462,-9999.0,552331,-9999.0,552302,-9999.0,552285,-9999.0,
1684327070177,552278,-9999.0,664982,0,2799279,-2799279,0.0,0.0,124,551847,-9999.0,551939,-9999.0,551837,-9999.0,551812,-9999.0,
1684327070185,551729,-9999.0,665144,0,2799279,-2799279,0.0,0.0,125,551376,-9999.0,551794,-9999.0,551210,-9999.0,550856,-9999.0,
1684327070193,550894,-9999.0,665309,0,2799279,-2799279,0.0,0.0,126,551331,-9999.0,551083,-9999.0,550611,-9999.0,550804,-9999.0,
1684327070201,550595,-9999.0,665341,0,2799279,-2799279,0.0,0.0,127,550412,-9999.0,550090,-9999.0,550001,-9999.0,549900,-9999.0,
1684327070207,549675,-9999.0,665458,0,2799279,-2799279,0.0,0.0,128,549743,-9999.0,549877,-9999.0,549683,-9999.0,549607,-9999.0,
1684327070215,549798,-9999.0,665599,0,2799279,-2799279,0.0,0.0,129,550064,-9999.0,549874,-9999.0,550082,-9999.0,549795,-9999.0,
1684327070225,549934,-9999.0,665618,0,2799279,-2799279,0.0,0.0,130,550587,-9999.0,550466,-9999.0,550507,-9999.0,550817,-9999.0,
1684327070233,550932,-9999.0,665665,0,2799279,-2799279,0.0,0.0,131,550826,-9999.0,550782,-9999.0,550805,-9999.0,550885,-9999.0,
1684327070241,550729,-9999.0,665761,0,2799279,-2799279,0.0,0.0,132,550836,-9999.0,551320,-9999.0,551461,-9999.0,551382,-9999.0,
1684327070253,551388,-9999.0,665727,0,2799279,-2799279,0.0,0.0,133,551454,-9999.0,551808,-9999.0,551756,-9999.0,551837,-9999.0,
1684327070261,552028,-9999.0,665843,0,2799279,-2799279,0.0,0.0,134,552188,-9999.0,552374,-9999.0,552602,-9999.0,552857,-9999.0,
1684327070267,552837,-9999.0,665938,0,2799279,-2799279,0.0,0.0,135,553047,-9999.0,553066,-9999.0,553364,-9999.0,553151,-9999.0,
1684327070276,553277,-9999.0,665887,0,2799279,-2799279,0.0,0.0,136,553353,-9999.0,553553,-9999.0,553665,-9999.0,553725,-9999.0,
1684327070284,553951,-9999.0,666010,0,2799279,-2799279,0.0,0.0,137,553914,-9999.0,553862,-9999.0,553751,-9999.0,553763,-9999.0,
1684327070291,553762,-9999.0,665868,0,2799279,-2799279,0.0,0.0,138,553733,-9999.0,553585,-9999.0,553628,-9999.0,553504,-9999.0,
1684327070297,553394,-9999.0,665868,0,2799279,-2799279,0.0,0.0,139,553255,-9999.0,553062,-9999.0,552796,-9999.0,552757,-9999.0,
1684327070305,552772,-9999.0,665857,0,2799279,-2799279,0.0,0.0,140,552151,-9999.0,551750,-9999.0,552072,-9999.0,552194,-9999.0,
1684327070313,551813,-9999.0,665705,0,2799279,-2799279,0.0,0.0,141,551733,-9999.0,551561,-9999.0,551656,-9999.0,551562,-9999.0,
1684327070319,551250,-9999.0,665718,0,2799279,-2799279,0.0,0.0,142,551323,-9999.0,551275,-9999.0,551469,-9999.0,551326,-9999.0,
1684327070326,551208,-9999.0,665603,0,2799279,-2799279,0.0,0.0,143,551186,-9999.0,551064,-9999.0,550912,-9999.0,550820,-9999.0,
1684327070334,550630,-9999.0,665547,0,2799279,-2799279,0.0,0.0,144,550634,-9999.0,550681,-9999.0,550702,-9999.0,550706,-9999.0,
1684327070342,550654,-9999.0,665519,0,2799279,-2799279,0.0,0.0,145,550531,-9999.0,550415,-9999.0,550408,-9999.0,550502,-9999.0,
1684327070348,550553,-9999.0,665392,0,2799279,-2799279,0.0,0.0,146,550562,-9999.0,550526,-9999.0,550220,-9999.0,550483,-9999.0,
1684327070356,550406,-9999.0,665415,0,2799279,-2799279,0.0,0.0,147,550376,-9999.0,550323,-9999.0,550350,-9999.0,550335,-9999.0,
1684327070365,550502,-9999.0,665373,0,2799279,-2799279,0.0,0.0,148,550378,-9999.0,550420,-9999.0,550382,-9999.0,550323,-9999.0,
1684327070373,550471,-9999.0,665415,0,2799279,-2799279,0.0,0.0,149,550378,-9999.0,550223,-9999.0,550172,-9999.0,550224,-9999.0,
1684327070379,550215,-9999.0,665358,0,2799279,-2799279,0.0,0.0,150,550204,-9999.0,550187,-9999.0,550217,-9999.0,550225,-9999.0,
1684327070387,550112,-9999.0,665430,0,2799279,-2799279,0.0,0.0,151,550073,-9999.0,550062,-9999.0,549904,-9999.0,549763,-9999.0,
1684327070395,549799,-9999.0,665422,0,2799279,-2799279,0.0,0.0,152,549741,-9999.0,549667,-9999.0,549636,-9999.0,549655,-9999.0,
1684327070403,549443,-9999.0,665379,0,2799279,-2799279,0.0,0.0,153,549710,-9999.0,549328,-9999.0,549372,-9999.0,549349,-9999.0,
1684327070414,549339,-9999.0,665330,0,2799279,-2799279,0.0,0.0,154,549261,-9999.0,549242,-9999.0,549452,-9999.0,549293,-9999.0,
1684327070422,548883,-9999.0,665364,0,2799279,-2799279,0.0,0.0,155,549273,-9999.0,549109,-9999.0,548995,-9999.0,549009,-9999.0,
1684327070428,548739,-9999.0,665276,0,2799279,-2799279,0.0,0.0,156,548638,-9999.0,548736,-9999.0,548796,-9999.0,548600,-9999.0,
1684327070436,548724,-9999.0,665249,0,2799279,-2799279,0.0,0.0,157,548588,-9999.0,548467,-9999.0,548134,-9999.0,548002,-9999.0,
1684327070443,548111,-9999.0,665172,0,2799279,-2799279,0.0,0.0,158,547880,-9999.0,547772,-9999.0,547834,-9999.0,547759,-9999.0,
1684327070450,547480,-9999.0,665208,0,2799279,-2799279,0.0,0.0,159,547321,-9999.0,547307,-9999.0,547253,-9999.0,547048,-9999.0,
1684327070457,547103,-9999.0,665110,0,2799279,-2799279,0.0,0.0,160,547174,-9999.0,547197,-9999.0,547094,-9999.0,547094,-9999.0,
1684327070465,547269,-9999.0,664999,0,2799279,-2799279,0.0,0.0,161,547153,-9999.0,547038,-9999.0,547016,-9999.0,546923,-9999.0,
1684327070471,547008,-9999.0,664895,0,2799279,-2799279,0.0,0.0,162,547155,-9999.0,547258,-9999.0,547183,-9999.0,547441,-9999.0,
1684327070479,547330,-9999.0,664848,0,2799279,-2799279,0.0,0.0,163,547170,-9999.0,547233,-9999.0,547271,-9999.0,547559,-9999.0,
1684327070493,547486,-9999.0,664722,0,2799279,-2799279,0.0,0.0,164,547518,-9999.0,547469,-9999.0,547699,-9999.0,547792,-9999.0,
1684327070507,547661,-9999.0,664763,0,2799279,-2799279,0.0,0.0,165,547596,-9999.0,547667,-9999.0,547543,-9999.0,547649,-9999.0,
1684327070515,547548,-9999.0,664956,0,2799279,-2799279,0.0,0.0,166,547802,-9999.0,548139,-9999.0,547951,-9999.0,547620,-9999.0,
1684327070525,547786,-9999.0,665051,0,2799279,-2799279,0.0,0.0,167,547673,-9999.0,547625,-9999.0,547703,-9999.0,547848,-9999.0,
1684327070533,548014,-9999.0,665125,0,2799279,-2799279,0.0,0.0,168,547802,-9999.0,547820,-9999.0,547902,-9999.0,547851,-9999.0,
1684327070539,547663,-9999.0,665119,0,2799279,-2799279,0.0,0.0,169,547715,-9999.0,547839,-9999.0,547672,-9999.0,547644,-9999.0,
1684327070557,547692,-9999.0,665240,0,2799279,-2799279,0.0,0.0,170,547668,-9999.0,547707,-9999.0,547803,-9999.0,547739,-9999.0,
1684327070569,547635,-9999.0,665270,0,2799279,-2799279,0.0,0.0,171,547571,-9999.0,547595,-9999.0,547398,-9999.0,547664,-9999.0,
1684327070578,547597,-9999.0,665263,0,2799279,-2799279,0.0,0.0,172,547548,-9999.0,547756,-9999.0,546888,-9999.0,547277,-9999.0,
1684327070599,547935,-9999.0,665311,0,2799279,-2799279,0.0,0.0,173,547637,-9999.0,547386,-9999.0,547468,-9999.0,547474,-9999.0,
1684327070607,547549,-9999.0,665309,0,2799279,-2799279,0.0,0.0,174,547442,-9999.0,547458,-9999.0,547655,-9999.0,547645,-9999.0,
1684327070616,547513,-9999.0,665330,0,2799279,-2799279,0.0,0.0,175,547656,-9999.0,547516,-9999.0,547388,-9999.0,547406,-9999.0,
1684327070627,547489,-9999.0,665311,0,2799279,-2799279,0.0,0.0,176,547481,-9999.0,547516,-9999.0,547559,-9999.0,547246,-9999.0,
1684327070639,547163,-9999.0,665396,0,2799279,-2799279,0.0,0.0,177,547330,-9999.0,547362,-9999.0,547323,-9999.0,547305,-9999.0,
1684327070650,547370,-9999.0,665430,0,2799279,-2799279,0.0,0.0,178,547295,-9999.0,547416,-9999.0,547414,-9999.0,547203,-9999.0,
1684327070672,547150,-9999.0,665403,0,2799279,-2799279,0.0,0.0,179,547127,-9999.0,547072,-9999.0,546963,-9999.0,546942,-9999.0,
1684327070694,547084,-9999.0,665471,0,2799279,-2799279,0.0,0.0,180,547189,-9999.0,547119,-9999.0,547301,-9999.0,547506,-9999.0,
1684327070720,547944,-9999.0,665498,0,2799279,-2799279,0.0,0.0,181,548023,-9999.0,548308,-9999.0,547677,-9999.0,548202,-9999.0,
1684327070734,547950,-9999.0,665752,0,2799279,-2799279,0.0,0.0,182,547749,-9999.0,547824,-9999.0,547480,-9999.0,547373,-9999.0,
1684327070750,547432,-9999.0,665801,0,2799279,-2799279,0.0,0.0,183,547303,-9999.0,547086,-9999.0,546979,-9999.0,547142,-9999.0,
1684327070764,546928,-9999.0,666004,0,2799279,-2799279,0.0,0.0,184,546959,-9999.0,546920,-9999.0,546769,-9999.0,546606,-9999.0,
1684327070778,546561,-9999.0,666147,0,2799279,-2799279,0.0,0.0,185,546501,-9999.0,546122,-9999.0,545826,-9999.0,545840,-9999.0,
1684327070790,545636,-9999.0,666563,0,2799279,-2799279,0.0,0.0,186,545100,-9999.0,545518,-9999.0,545633,-9999.0,545681,-9999.0,
1684327070802,545855,-9999.0,667081,0,2799279,-2799279,0.0,0.0,187,545752,-9999.0,545670,-9999.0,545718,-9999.0,545843,-9999.0,
1684327070824,546150,-9999.0,667642,0,2799279,-2799279,0.0,0.0,188,546294,-9999.0,546463,-9999.0,546650,-9999.0,546313,-9999.0,
1684327070840,546625,-9999.0,668156,0,2799279,-2799279,0.0,0.0,189,546991,-9999.0,547125,-9999.0,547353,-9999.0,547699,-9999.0,
1684327070854,547818,-9999.0,668717,0,2799279,-2799279,0.0,0.0,190,548197,-9999.0,548389,-9999.0,548507,-9999.0,548750,-9999.0,
1684327070866,548999,-9999.0,669003,0,2799279,-2799279,0.0,0.0,191,549253,-9999.0,549515,-9999.0,549399,-9999.0,549112,-9999.0,
1684327070878,549022,-9999.0,669254,0,2799279,-2799279,0.0,0.0,192,549492,-9999.0,549737,-9999.0,550036,-9999.0,550722,-9999.0,
1684327070891,551362,-9999.0,669485,0,2799279,-2799279,0.0,0.0,193,551567,-9999.0,552060,-9999.0,552573,-9999.0,552761,-9999.0,
1684327070904,553356,-9999.0,669447,0,2799279,-2799279,0.0,0.0,194,554077,-9999.0,554806,-9999.0,555360,-9999.0,555985,-9999.0,
1684327070916,556593,-9999.0,669561,0,2799279,-2799279,0.0,0.0,195,557219,-9999.0,557471,-9999.0,556849,-9999.0,556102,-9999.0,
1684327070930,555440,-9999.0,669726,0,2799279,-2799279,0.0,0.0,196,554647,-9999.0,553319,-9999.0,552139,-9999.0,551157,-9999.0,
1684327070942,550550,-9999.0,669800,0,2799279,-2799279,0.0,0.0,197,550293,-9999.0,550273,-9999.0,550263,-9999.0,550475,-9999.0,
1684327070949,549962,-9999.0,669984,0,2799279,-2799279,0.0,0.0,198,550396,-9999.0,550550,-9999.0,550622,-9999.0,550649,-9999.0,
1684327070956,550486,-9999.0,670073,0,2799279,-2799279,0.0,0.0,199,550536,-9999.0,550541,-9999.0,550351,-9999.0,550312,-9999.0,
1684327070965,550319,-9999.0,670201,0,2799279,-2799279,0.0,0.0,200,550541,-9999.0,550569,-9999.0,550578,-9999.0,550577,-9999.0,
1684327070977,550520,-9999.0,670457,0,2799279,-2799279,0.0,0.0,201,550432,-9999.0,550464,-9999.0,550496,-9999.0,550607,-9999.0,
1684327070993,550687,-9999.0,670594,0,2799279,-2799279,0.0,0.0,202,550631,-9999.0,550643,-9999.0,550722,-9999.0,550702,-9999.0,
1684327071006,550686,-9999.0,670850,0,2799279,-2799279,0.0,0.0,203,550706,-9999.0,550710,-9999.0,550845,-9999.0,550991,-9999.0,
1684327071018,550925,-9999.0,671221,0,2799279,-2799279,0.0,0.0,204,550870,-9999.0,550774,-9999.0,550973,-9999.0,551140,-9999.0,
1684327071028,551204,-9999.0,671419,0,2799279,-2799279,0.0,0.0,205,550936,-9999.0,551100,-9999.0,551083,-9999.0,551085,-9999.0,
1684327071039,551310,-9999.0,671673,0,2799279,-2799279,0.0,0.0,206,551121,-9999.0,551109,-9999.0,551320,-9999.0,551517,-9999.0,
1684327071052,551288,-9999.0,671906,0,2799279,-2799279,0.0,0.0,207,551202,-9999.0,551296,-9999.0,551336,-9999.0,551296,-9999.0,
1684327071064,551287,-9999.0,672204,0,2799279,-2799279,0.0,0.0,208,551332,-9999.0,551308,-9999.0,551413,-9999.0,551513,-9999.0,
1684327071078,551613,-9999.0,672464,0,2799279,-2799279,0.0,0.0,209,551669,-9999.0,551535,-9999.0,551413,-9999.0,551405,-9999.0,
1684327071088,551447,-9999.0,672611,0,2799279,-2799279,0.0,0.0,210,551463,-9999.0,551554,-9999.0,551686,-9999.0,551618,-9999.0,
1684327071101,551642,-9999.0,672884,0,2799279,-2799279,0.0,0.0,211,551724,-9999.0,551439,-9999.0,551437,-9999.0,551789,-9999.0,
1684327071112,551796,-9999.0,673102,0,2799279,-2799279,0.0,0.0,212,551788,-9999.0,552080,-9999.0,552166,-9999.0,552462,-9999.0,
1684327071123,552335,-9999.0,673193,0,2799279,-2799279,0.0,0.0,213,552309,-9999.0,552397,-9999.0,552549,-9999.0,552532,-9999.0,
1684327071134,552354,-9999.0,673149,0,2799279,-2799279,0.0,0.0,214,552473,-9999.0,552512,-9999.0,552462,-9999.0,552570,-9999.0,
1684327071147,552544,-9999.0,673119,0,2799279,-2799279,0.0,0.0,215,552532,-9999.0,552713,-9999.0,552767,-9999.0,552752,-9999.0,
1684327071152,552737,-9999.0,673140,0,2799279,-2799279,0.0,0.0,216,552772,-9999.0,552815,-9999.0,552792,-9999.0,552857,-9999.0,
1684327071159,552843,-9999.0,673038,0,2799279,-2799279,0.0,0.0,217,552910,-9999.0,553062,-9999.0,553155,-9999.0,553083,-9999.0,
1684327071167,552932,-9999.0,673015,0,2799279,-2799279,0.0,0.0,218,552904,-9999.0,552922,-9999.0,552915,-9999.0,553040,-9999.0,
1684327071178,552795,-9999.0,672905,0,2799279,-2799279,0.0,0.0,219,552522,-9999.0,552585,-9999.0,552379,-9999.0,552502,-9999.0,
1684327071183,552497,-9999.0,672865,0,2799279,-2799279,0.0,0.0,220,552433,-9999.0,552630,-9999.0,552717,-9999.0,552437,-9999.0,
1684327071197,552430,-9999.0,672863,0,2799279,-2799279,0.0,0.0,221,552395,-9999.0,552258,-9999.0,552178,-9999.0,551972,-9999.0,
1684327071202,551701,-9999.0,672776,0,2799279,-2799279,0.0,0.0,222,551513,-9999.0,551682,-9999.0,551645,-9999.0,551531,-9999.0,
1684327071207,551772,-9999.0,672776,0,2799279,-2799279,0.0,0.0,223,551774,-9999.0,551487,-9999.0,551614,-9999.0,551656,-9999.0,
1684327071215,551648,-9999.0,672727,0,2799279,-2799279,0.0,0.0,224,551722,-9999.0,551690,-9999.0,551762,-9999.0,551806,-9999.0,
1684327071229,551897,-9999.0,672869,0,2799279,-2799279,0.0,0.0,225,551912,-9999.0,551980,-9999.0,552115,-9999.0,552228,-9999.0,
1684327071237,552195,-9999.0,672935,0,2799279,-2799279,0.0,0.0,226,552172,-9999.0,552127,-9999.0,551983,-9999.0,552031,-9999.0,
1684327071254,552067,-9999.0,673061,0,2799279,-2799279,0.0,0.0,227,552032,-9999.0,552058,-9999.0,552028,-9999.0,552051,-9999.0,
1684327071260,552067,-9999.0,673176,0,2799279,-2799279,0.0,0.0,228,552207,-9999.0,552313,-9999.0,552294,-9999.0,552358,-9999.0,
1684327071271,552381,-9999.0,673381,0,2799279,-2799279,0.0,0.0,229,552349,-9999.0,552638,-9999.0,552781,-9999.0,552654,-9999.0,
1684327071279,552645,-9999.0,673663,0,2799279,-2799279,0.0,0.0,230,552767,-9999.0,552835,-9999.0,552711,-9999.0,552781,-9999.0,
1684327071289,552863,-9999.0,674045,0,2799279,-2799279,0.0,0.0,231,552549,-9999.0,552950,-9999.0,552889,-9999.0,553038,-9999.0,
1684327071301,553094,-9999.0,674454,0,2799279,-2799279,0.0,0.0,232,553039,-9999.0,553096,-9999.0,553522,-9999.0,553506,-9999.0,
1684327071314,553532,-9999.0,675023,0,2799279,-2799279,0.0,0.0,233,553575,-9999.0,553579,-9999.0,553552,-9999.0,553800,-9999.0,
1684327071320,553721,-9999.0,675734,0,2799279,-2799279,0.0,0.0,234,553958,-9999.0,554059,-9999.0,554256,-9999.0,554046,-9999.0,
1684327071326,554057,-9999.0,676476,0,2799279,-2799279,0.0,0.0,235,554334,-9999.0,554399,-9999.0,554491,-9999.0,554552,-9999.0,
1684327071333,554569,-9999.0,677182,0,2799279,-2799279,0.0,0.0,236,554644,-9999.0,554728,-9999.0,554853,-9999.0,554891,-9999.0,
1684327071343,554931,-9999.0,677586,0,2799279,-2799279,0.0,0.0,237,555006,-9999.0,554977,-9999.0,555042,-9999.0,554966,-9999.0,
1684327071353,555030,-9999.0,678088,0,2799279,-2799279,0.0,0.0,238,555184,-9999.0,555237,-9999.0,555234,-9999.0,555285,-9999.0,
1684327071361,555389,-9999.0,678660,0,2799279,-2799279,0.0,0.0,239,555441,-9999.0,555461,-9999.0,555421,-9999.0,555527,-9999.0,
1684327071373,555255,-9999.0,679197,0,2799279,-2799279,0.0,0.0,240,555527,-9999.0,555405,-9999.0,556622,-9999.0,555957,-9999.0,
1684327071379,555938,-9999.0,679552,0,2799279,-2799279,0.0,0.0,241,555785,-9999.0,555916,-9999.0,555937,-9999.0,555916,-9999.0,
1684327071385,556022,-9999.0,679886,0,2799279,-2799279,0.0,0.0,242,555757,-9999.0,556041,-9999.0,556144,-9999.0,556082,-9999.0,
1684327071396,556072,-9999.0,680650,0,2799279,-2799279,0.0,0.0,243,556061,-9999.0,556082,-9999.0,556124,-9999.0,556144,-9999.0,
1684327071403,556160,-9999.0,681546,0,2799279,-2799279,0.0,0.0,244,556241,-9999.0,556223,-9999.0,556346,-9999.0,556355,-9999.0,
1684327071411,556439,-9999.0,682348,0,2799279,-2799279,0.0,0.0,245,556330,-9999.0,556462,-9999.0,556682,-9999.0,556629,-9999.0,
1684327071418,556541,-9999.0,683086,0,2799279,-2799279,0.0,0.0,246,556760,-9999.0,556577,-9999.0,556534,-9999.0,556703,-9999.0,
1684327071422,556710,-9999.0,683565,0,2799279,-2799279,0.0,0.0,247,556541,-9999.0,556725,-9999.0,556912,-9999.0,556945,-9999.0,
1684327071428,556860,-9999.0,683996,0,2799279,-2799279,0.0,0.0,248,556747,-9999.0,556814,-9999.0,556713,-9999.0,556999,-9999.0,
1684327071433,556932,-9999.0,684527,0,2799279,-2799279,0.0,0.0,249,556985,-9999.0,556933,-9999.0,557039,-9999.0,557004,-9999.0,
1684327071445,556929,-9999.0,685035,0,2799279,-2799279,0.0,0.0,250,557307,-9999.0,557356,-9999.0,557368,-9999.0,557267,-9999.0,
1684327071452,557330,-9999.0,685197,0,2799279,-2799279,0.0,0.0,251,557430,-9999.0,557240,-9999.0,557304,-9999.0,557748,-9999.0,
1684327071463,557493,-9999.0,685236,0,2799279,-2799279,0.0,0.0,252,557602,-9999.0,557818,-9999.0,557901,-9999.0,557892,-9999.0,
1684327071472,557873,-9999.0,685393,0,2799279,-2799279,0.0,0.0,253,557789,-9999.0,558166,-9999.0,558096,-9999.0,558146,-9999.0,
1684327071486,558174,-9999.0,685764,0,2799279,-2799279,0.0,0.0,254,558184,-9999.0,558179,-9999.0,558211,-9999.0,558164,-9999.0,
1684327071495,558163,-9999.0,686159,0,2799279,-2799279,0.0,0.0,255,558231,-9999.0,558397,-9999.0,558326,-9999.0,558192,-9999.0,
1684327071502,558176,-9999.0,686574,0,2799279,-2799279,0.0,0.0,0,558271,-9999.0,558468,-9999.0,558648,-9999.0,558327,-9999.0,
1684327071511,558413,-9999.0,686607,0,2799279,-2799279,0.0,0.0,1,558468,-9999.0,558662,-9999.0,558613,-9999.0,558497,-9999.0,
1684327071519,558701,-9999.0,686225,0,2799279,-2799279,0.0,0.0,2,558781,-9999.0,558745,-9999.0,558801,-9999.0,558857,-9999.0,
1684327071526,558984,-9999.0,686125,0,2799279,-2799279,0.0,0.0,3,558877,-9999.0,558837,-9999.0,558918,-9999.0,558960,-9999.0,
1684327071535,559055,-9999.0,686379,0,2799279,-2799279,0.0,0.0,4,559230,-9999.0,559233,-9999.0,559428,-9999.0,559406,-9999.0,
1684327071545,559437,-9999.0,686792,0,2799279,-2799279,0.0,0.0,5,559524,-9999.0,559704,-9999.0,559723,-9999.0,559840,-9999.0,
1684327071556,559644,-9999.0,686585,0,2799279,-2799279,0.0,0.0,6,559927,-9999.0,559597,-9999.0,560002,-9999.0,559790,-9999.0,559758,-9999.0,559704,-9999.0,559548,-9999.0,559672,-9999.0,559525,-9999.0,
1684327071564,559745,-9999.0,686282,0,2799279,-2799279,0.0,0.0,7,559721,-9999.0,559484,-9999.0,559745,-9999.0,559577,-9999.0,
1684327071572,559615,-9999.0,686752,0,2799279,-2799279,0.0,0.0,8,559548,-9999.0,559561,-9999.0,559506,-9999.0,559609,-9999.0,
1684327071583,559659,-9999.0,687573,0,2799279,-2799279,0.0,0.0,9,559624,-9999.0,559504,-9999.0,559559,-9999.0,559496,-9999.0,
1684327071591,559365,-9999.0,688752,0,2799279,-2799279,0.0,0.0,10,559219,-9999.0,559420,-9999.0,559580,-9999.0,559481,-9999.0,
1684327071599,559551,-9999.0,690335,0,2799279,-2799279,0.0,0.0,11,559615,-9999.0,559329,-9999.0,559452,-9999.0,559584,-9999.0,
1684327071606,559811,-9999.0,691530,0,2799279,-2799279,0.0,0.0,12,560139,-9999.0,560481,-9999.0,560831,-9999.0,561742,-9999.0,
1684327071614,562121,-9999.0,692666,0,2799279,-2799279,0.0,0.0,13,562721,-9999.0,562730,-9999.0,563326,-9999.0,564088,-9999.0,
1684327071621,564673,-9999.0,693641,0,2799279,-2799279,0.0,0.0,14,565362,-9999.0,565944,-9999.0,566560,-9999.0,567169,-9999.0,
1684327071630,566631,-9999.0,694995,0,2799279,-2799279,0.0,0.0,15,565954,-9999.0,565723,-9999.0,564996,-9999.0,563621,-9999.0,
1684327071636,562240,-9999.0,695549,0,2799279,-2799279,0.0,0.0,16,560999,-9999.0,560269,-9999.0,560329,-9999.0,560081,-9999.0,
1684327071644,560070,-9999.0,696863,0,2799279,-2799279,0.0,0.0,17,560531,-9999.0,560589,-9999.0,560479,-9999.0,560719,-9999.0,
1684327071651,560730,-9999.0,698636,0,2799279,-2799279,0.0,0.0,18,560561,-9999.0,560811,-9999.0,560664,-9999.0,560525,-9999.0,
1684327071660,560468,-9999.0,700709,0,2799279,-2799279,0.0,0.0,19,560444,-9999.0,560679,-9999.0,560672,-9999.0,560619,-9999.0,
1684327071668,560515,-9999.0,703731,0,2799279,-2799279,0.0,0.0,20,560497,-9999.0,560436,-9999.0,560539,-9999.0,560353,-9999.0,
1684327071673,560373,-9999.0,706711,0,2799279,-2799279,0.0,0.0,21,560592,-9999.0,560680,-9999.0,560714,-9999.0,560584,-9999.0,
1684327071680,560871,-9999.0,710365,0,2799279,-2799279,0.0,0.0,22,560783,-9999.0,560867,-9999.0,561054,-9999.0,561173,-9999.0,
1684327071685,561072,-9999.0,714645,0,2799279,-2799279,0.0,0.0,23,561246,-9999.0,561284,-9999.0,561300,-9999.0,561475,-9999.0,
1684327071692,561229,-9999.0,720416,0,2799279,-2799279,0.0,0.0,24,561061,-9999.0,561117,-9999.0,561180,-9999.0,561220,-9999.0,
1684327071696,561472,-9999.0,727613,0,2799279,-2799279,0.0,0.0,25,561344,-9999.0,561883,-9999.0,561636,-9999.0,561550,-9999.0,
1684327071703,561850,-9999.0,734393,0,2799279,-2799279,0.0,0.0,26,561729,-9999.0,561551,-9999.0,561668,-9999.0,561689,-9999.0,
1684327071707,561751,-9999.0,737671,0,2799279,-2799279,0.0,0.0,27,561745,-9999.0,561344,-9999.0,562028,-9999.0,561909,-9999.0,
1684327071713,561833,-9999.0,737329,0,2799279,-2799279,0.0,0.0,28,562009,-9999.0,562200,-9999.0,562107,-9999.0,562152,-9999.0,
1684327071724,562183,-9999.0,734941,0,2799279,-2799279,0.0,0.0,29,562161,-9999.0,562382,-9999.0,562390,-9999.0,562575,-9999.0,
1684327071730,562733,-9999.0,732720,0,2799279,-2799279,0.0,0.0,30,562622,-9999.0,562642,-9999.0,562498,-9999.0,562309,-9999.0,
1684327071735,562440,-9999.0,731471,0,2799279,-2799279,0.0,0.0,31,562701,-9999.0,562930,-9999.0,562796,-9999.0,562888,-9999.0,
1684327071741,563125,-9999.0,731585,0,2799279,-2799279,0.0,0.0,32,562917,-9999.0,562844,-9999.0,562917,-9999.0,562753,-9999.0,
1684327071746,562500,-9999.0,732465,0,2799279,-2799279,0.0,0.0,33,562336,-9999.0,562280,-9999.0,562336,-9999.0,562450,-9999.0,
1684327071753,562460,-9999.0,733834,0,2799279,-2799279,0.0,0.0,34,562284,-9999.0,562446,-9999.0,562244,-9999.0,562088,-9999.0,
1684327071758,561972,-9999.0,735407,0,2799279,-2799279,0.0,0.0,35,561850,-9999.0,561858,-9999.0,561689,-9999.0,561556,-9999.0,
1684327071771,561694,-9999.0,734435,0,2799279,-2799279,0.0,0.0,36,561457,-9999.0,561456,-9999.0,561393,-9999.0,561423,-9999.0,
1684327071781,561539,-9999.0,732720,0,2799279,-2799279,0.0,0.0,37,561543,-9999.0,561385,-9999.0,561357,-9999.0,561634,-9999.0,
1684327071787,561423,-9999.0,729882,0,2799279,-2799279,0.0,0.0,38,561686,-9999.0,561272,-9999.0,561368,-9999.0,561209,-9999.0,
1684327071801,561104,-9999.0,728105,0,2799279,-2799279,0.0,0.0,39,560877,-9999.0,561023,-9999.0,560950,-9999.0,560943,-9999.0,
1684327071806,561096,-9999.0,726589,0,2799279,-2799279,0.0,0.0,40,560700,-9999.0,560521,-9999.0,560565,-9999.0,560437,-9999.0,
1684327071820,560660,-9999.0,725494,0,2799279,-2799279,0.0,0.0,41,560630,-9999.0,560704,-9999.0,560452,-9999.0,560403,-9999.0,
1684327071847,560423,-9999.0,722449,0,2799279,-2799279,0.0,0.0,42,560218,-9999.0,560009,-9999.0,560252,-9999.0,560260,-9999.0,
1684327071856,560166,-9999.0,717463,0,2799279,-2799279,0.0,0.0,43,560220,-9999.0,560369,-9999.0,560106,-9999.0,560432,-9999.0,
1684327071864,560320,-9999.0,712022,0,2799279,-2799279,0.0,0.0,44,560081,-9999.0,560210,-9999.0,560241,-9999.0,559946,-9999.0,
1684327071873,560041,-9999.0,706930,0,2799279,-2799279,0.0,0.0,45,560058,-9999.0,560051,-9999.0,560345,-9999.0,560222,-9999.0,
1684327071885,560155,-9999.0,704632,0,2799279,-2799279,0.0,0.0,46,560240,-9999.0,560186,-9999.0,560166,-9999.0,560232,-9999.0,
1684327071895,560046,-9999.0,700850,0,2799279,-2799279,0.0,0.0,47,560001,-9999.0,560034,-9999.0,560189,-9999.0,560045,-9999.0,
1684327071911,560017,-9999.0,697003,0,2799279,-2799279,0.0,0.0,48,560057,-9999.0,560244,-9999.0,560041,-9999.0,560186,-9999.0,
1684327071923,559843,-9999.0,691949,0,2799279,-2799279,0.0,0.0,49,559796,-9999.0,560282,-9999.0,560286,-9999.0,560175,-9999.0,
1684327071933,560129,-9999.0,687687,0,2799279,-2799279,0.0,0.0,50,560125,-9999.0,560238,-9999.0,559950,-9999.0,559926,-9999.0,
1684327071941,559898,-9999.0,684705,0,2799279,-2799279,0.0,0.0,51,559926,-9999.0,559879,-9999.0,559759,-9999.0,559915,-9999.0,
1684327071962,559764,-9999.0,682855,0,2799279,-2799279,0.0,0.0,52,559643,-9999.0,559616,-9999.0,559398,-9999.0,559157,-9999.0,
1684327071967,559418,-9999.0,681362,0,2799279,-2799279,0.0,0.0,53,559079,-9999.0,559424,-9999.0,559470,-9999.0,559553,-9999.0,
1684327071973,559516,-9999.0,680204,0,2799279,-2799279,0.0,0.0,54,559348,-9999.0,559193,-9999.0,559083,-9999.0,559143,-9999.0,
1684327071981,559429,-9999.0,679251,0,2799279,-2799279,0.0,0.0,55,559259,-9999.0,559008,-9999.0,559060,-9999.0,559071,-9999.0,
1684327071990,559420,-9999.0,678511,0,2799279,-2799279,0.0,0.0,56,559203,-9999.0,558982,-9999.0,559090,-9999.0,559052,-9999.0,
1684327071999,559145,-9999.0,677920,0,2799279,-2799279,0.0,0.0,57,559233,-9999.0,559275,-9999.0,559249,-9999.0,559210,-9999.0,
1684327072010,559129,-9999.0,677438,0,2799279,-2799279,0.0,0.0,58,558869,-9999.0,559015,-9999.0,559044,-9999.0,558849,-9999.0,
1684327072022,558877,-9999.0,677353,0,2799279,-2799279,0.0,0.0,59,558964,-9999.0,559024,-9999.0,558923,-9999.0,558959,-9999.0,
1684327072035,558930,-9999.0,677330,0,2799279,-2799279,0.0,0.0,60,558736,-9999.0,558670,-9999.0,558658,-9999.0,558584,-9999.0,
1684327072056,558646,-9999.0,677559,0,2799279,-2799279,0.0,0.0,61,558723,-9999.0,558650,-9999.0,558732,-9999.0,558581,-9999.0,
1684327072064,558658,-9999.0,678041,0,2799279,-2799279,0.0,0.0,62,558609,-9999.0,558608,-9999.0,558813,-9999.0,558632,-9999.0,
1684327072074,558625,-9999.0,678621,0,2799279,-2799279,0.0,0.0,63,558541,-9999.0,558429,-9999.0,558500,-9999.0,558815,-9999.0,
1684327072084,558656,-9999.0,679406,0,2799279,-2799279,0.0,0.0,64,558556,-9999.0,558783,-9999.0,558584,-9999.0,558622,-9999.0,
1684327072094,558606,-9999.0,679986,0,2799279,-2799279,0.0,0.0,65,558632,-9999.0,558677,-9999.0,558592,-9999.0,558955,-9999.0,
1684327072103,558986,-9999.0,680345,0,2799279,-2799279,0.0,0.0,66,558756,-9999.0,558825,-9999.0,558715,-9999.0,558972,-9999.0,
1684327072114,558628,-9999.0,680756,0,2799279,-2799279,0.0,0.0,67,558920,-9999.0,559058,-9999.0,559082,-9999.0,558982,-9999.0,
1684327072125,558856,-9999.0,681038,0,2799279,-2799279,0.0,0.0,68,559006,-9999.0,558919,-9999.0,559083,-9999.0,558792,-9999.0,
1684327072137,558616,-9999.0,681870,0,2799279,-2799279,0.0,0.0,69,557769,-9999.0,556987,-9999.0,557692,-9999.0,557985,-9999.0,
1684327072149,558076,-9999.0,683000,0,2799279,-2799279,0.0,0.0,70,557877,-9999.0,557952,-9999.0,558430,-9999.0,558248,-9999.0,
1684327072154,558215,-9999.0,684325,0,2799279,-2799279,0.0,0.0,71,557614,-9999.0,557714,-9999.0,557921,-9999.0,557955,-9999.0,
1684327072162,558261,-9999.0,685954,0,2799279,-2799279,0.0,0.0,72,558062,-9999.0,558103,-9999.0,558206,-9999.0,558307,-9999.0,
1684327072172,558289,-9999.0,687477,0,2799279,-2799279,0.0,0.0,73,558290,-9999.0,558240,-9999.0,558239,-9999.0,558230,-9999.0,
1684327072179,558700,-9999.0,689486,0,2799279,-2799279,0.0,0.0,74,558656,-9999.0,558699,-9999.0,558732,-9999.0,558644,-9999.0,
1684327072187,558672,-9999.0,691736,0,2799279,-2799279,0.0,0.0,75,558769,-9999.0,558836,-9999.0,558764,-9999.0,558869,-9999.0,
1684327072193,558872,-9999.0,693651,0,2799279,-2799279,0.0,0.0,76,558727,-9999.0,558747,-9999.0,558425,-9999.0,559048,-9999.0,
1684327072199,558906,-9999.0,695403,0,2799279,-2799279,0.0,0.0,77,558580,-9999.0,558656,-9999.0,558685,-9999.0,558622,-9999.0,
1684327072205,558633,-9999.0,697699,0,2799279,-2799279,0.0,0.0,78,558737,-9999.0,558572,-9999.0,558528,-9999.0,558566,-9999.0,
1684327072211,558622,-9999.0,700376,0,2799279,-2799279,0.0,0.0,79,558728,-9999.0,558437,-9999.0,558391,-9999.0,558524,-9999.0,
1684327072216,558374,-9999.0,703147,0,2799279,-2799279,0.0,0.0,80,558311,-9999.0,558278,-9999.0,558506,-9999.0,558544,-9999.0,
1684327072221,558485,-9999.0,704623,0,2799279,-2799279,0.0,0.0,81,558098,-9999.0,558151,-9999.0,558331,-9999.0,558184,-9999.0,
1684327072232,558315,-9999.0,706289,0,2799279,-2799279,0.0,0.0,82,558411,-9999.0,558576,-9999.0,558118,-9999.0,558199,-9999.0,
1684327072237,558333,-9999.0,707453,0,2799279,-2799279,0.0,0.0,83,558556,-9999.0,558621,-9999.0,558767,-9999.0,559278,-9999.0,
1684327072243,559772,-9999.0,708417,0,2799279,-2799279,0.0,0.0,84,560015,-9999.0,560481,-9999.0,560923,-9999.0,561383,-9999.0,
1684327072249,561908,-9999.0,709277,0,2799279,-2799279,0.0,0.0,85,562506,-9999.0,563206,-9999.0,563646,-9999.0,564174,-9999.0,
1684327072255,564881,-9999.0,709722,0,2799279,-2799279,0.0,0.0,86,565043,-9999.0,565147,-9999.0,564951,-9999.0,564246,-9999.0,
1684327072259,563481,-9999.0,709110,0,2799279,-2799279,0.0,0.0,87,562582,-9999.0,561814,-9999.0,560496,-9999.0,559246,-9999.0,
1684327072271,559030,-9999.0,707195,0,2799279,-2799279,0.0,0.0,88,558875,-9999.0,558538,-9999.0,558251,-9999.0,558112,-9999.0,
1684327072282,558361,-9999.0,706101,0,2799279,-2799279,0.0,0.0,89,558287,-9999.0,558578,-9999.0,558824,-9999.0,558650,-9999.0,
1684327072294,558713,-9999.0,705792,0,2799279,-2799279,0.0,0.0,90,558753,-9999.0,558533,-9999.0,558439,-9999.0,558670,-9999.0,
1684327072300,558629,-9999.0,704275,0,2799279,-2799279,0.0,0.0,91,558600,-9999.0,558562,-9999.0,558528,-9999.0,558683,-9999.0,
1684327072309,558584,-9999.0,702731,0,2799279,-2799279,0.0,0.0,92,558489,-9999.0,558482,-9999.0,558470,-9999.0,558614,-9999.0,
1684327072320,558787,-9999.0,701018,0,2799279,-2799279,0.0,0.0,93,558427,-9999.0,558545,-9999.0,558735,-9999.0,558265,-9999.0,
1684327072329,558188,-9999.0,699932,0,2799279,-2799279,0.0,0.0,94,558273,-9999.0,557997,-9999.0,557993,-9999.0,558021,-9999.0,
1684327072338,557545,-9999.0,699830,0,2799279,-2799279,0.0,0.0,95,557346,-9999.0,557453,-9999.0,557079,-9999.0,557016,-9999.0,
1684327072344,556881,-9999.0,700775,0,2799279,-2799279,0.0,0.0,96,557119,-9999.0,557415,-9999.0,556917,-9999.0,556717,-9999.0,
1684327072350,556979,-9999.0,702987,0,2799279,-2799279,0.0,0.0,97,557136,-9999.0,556930,-9999.0,556723,-9999.0,556833,-9999.0,
1684327072360,556623,-9999.0,705087,0,2799279,-2799279,0.0,0.0,98,556490,-9999.0,556838,-9999.0,556725,-9999.0,557089,-9999.0,
1684327072368,557439,-9999.0,705141,0,2799279,-2799279,0.0,0.0,99,557206,-9999.0,557215,-9999.0,557374,-9999.0,557661,-9999.0,
1684327072378,557868,-9999.0,701707,0,2799279,-2799279,0.0,0.0,100,557949,-9999.0,557766,-9999.0,557777,-9999.0,557634,-9999.0,
1684327072391,557788,-9999.0,696156,0,2799279,-2799279,0.0,0.0,101,558378,-9999.0,558214,-9999.0,557848,-9999.0,557857,-9999.0,
1684327072397,558019,-9999.0,691497,0,2799279,-2799279,0.0,0.0,102,557853,-9999.0,557790,-9999.0,557535,-9999.0,557279,-9999.0,
1684327072402,556993,-9999.0,690241,0,2799279,-2799279,0.0,0.0,103,557331,-9999.0,556975,-9999.0,556673,-9999.0,556532,-9999.0,
1684327072408,556321,-9999.0,689810,0,2799279,-2799279,0.0,0.0,104,555922,-9999.0,555643,-9999.0,555371,-9999.0,555296,-9999.0,
1684327072415,554873,-9999.0,689725,0,2799279,-2799279,0.0,0.0,105,554830,-9999.0,554877,-9999.0,554544,-9999.0,554444,-9999.0,
1684327072425,554397,-9999.0,689369,0,2799279,-2799279,0.0,0.0,106,554290,-9999.0,554216,-9999.0,553870,-9999.0,553791,-9999.0,
1684327072435,553555,-9999.0,688695,0,2799279,-2799279,0.0,0.0,107,553448,-9999.0,553291,-9999.0,553271,-9999.0,553254,-9999.0,
1684327072445,553108,-9999.0,688241,0,2799279,-2799279,0.0,0.0,108,552676,-9999.0,553104,-9999.0,552934,-9999.0,552764,-9999.0,
1684327072455,552684,-9999.0,687467,0,2799279,-2799279,0.0,0.0,109,552614,-9999.0,552570,-9999.0,552513,-9999.0,552236,-9999.0,
1684327072465,552306,-9999.0,685814,0,2799279,-2799279,0.0,0.0,110,552118,-9999.0,552131,-9999.0,552075,-9999.0,551851,-9999.0,
1684327072475,552075,-9999.0,682506,0,2799279,-2799279,0.0,0.0,111,552302,-9999.0,552210,-9999.0,552060,-9999.0,552134,-9999.0,
1684327072486,552158,-9999.0,678626,0,2799279,-2799279,0.0,0.0,112,552240,-9999.0,552115,-9999.0,552036,-9999.0,552409,-9999.0,
1684327072495,552025,-9999.0,675847,0,2799279,-2799279,0.0,0.0,113,552326,-9999.0,551887,-9999.0,552390,-9999.0,552228,-9999.0,
1684327072505,551912,-9999.0,677643,0,2799279,-2799279,0.0,0.0,114,551801,-9999.0,551582,-9999.0,551203,-9999.0,551215,-9999.0,
1684327072515,551307,-9999.0,684666,0,2799279,-2799279,0.0,0.0,115,552042,-9999.0,552271,-9999.0,551992,-9999.0,551557,-9999.0,
1684327072526,551837,-9999.0,696047,0,2799279,-2799279,0.0,0.0,116,552247,-9999.0,552409,-9999.0,552504,-9999.0,552787,-9999.0,
1684327072535,553162,-9999.0,709413,0,2799279,-2799279,0.0,0.0,117,553907,-9999.0,554816,-9999.0,555671,-9999.0,556480,-9999.0,
1684327072546,556965,-9999.0,722265,0,2799279,-2799279,0.0,0.0,118,557710,-9999.0,558333,-9999.0,559040,-9999.0,559934,-9999.0,
1684327072556,560334,-9999.0,735786,0,2799279,-2799279,0.0,0.0,119,560933,-9999.0,561449,-9999.0,562089,-9999.0,562824,-9999.0,
1684327072566,563510,-9999.0,749625,0,2799279,-2799279,0.0,0.0,120,564319,-9999.0,565364,-9999.0,566346,-9999.0,566738,-9999.0,
1684327072576,567225,-9999.0,762411,0,2799279,-2799279,0.0,0.0,121,567858,-9999.0,568905,-9999.0,570008,-9999.0,570068,-9999.0,
1684327072587,569893,-9999.0,767278,0,2799279,-2799279,0.0,0.0,122,570861,-9999.0,571084,-9999.0,571432,-9999.0,571772,-9999.0,
1684327072596,572018,-9999.0,760799,0,2799279,-2799279,0.0,0.0,123,572356,-9999.0,572565,-9999.0,572210,-9999.0,572305,-9999.0,
1684327072606,573466,-9999.0,742608,0,2799279,-2799279,0.0,0.0,124,573544,-9999.0,573699,-9999.0,573863,-9999.0,573908,-9999.0,
1684327072616,574005,-9999.0,717347,0,2799279,-2799279,0.0,0.0,125,574395,-9999.0,574770,-9999.0,574744,-9999.0,574618,-9999.0,
1684327072626,574727,-9999.0,697708,0,2799279,-2799279,0.0,0.0,126,574769,-9999.0,574305,-9999.0,573938,-9999.0,574208,-9999.0,
1684327072636,573612,-9999.0,688258,0,2799279,-2799279,0.0,0.0,127,574275,-9999.0,573863,-9999.0,573694,-9999.0,573547,-9999.0,
1684327072646,573415,-9999.0,684724,0,2799279,-2799279,0.0,0.0,128,573349,-9999.0,573356,-9999.0,573404,-9999.0,573460,-9999.0,
1684327072656,573419,-9999.0,684045,0,2799279,-2799279,0.0,0.0,129,573210,-9999.0,573017,-9999.0,573204,-9999.0,573591,-9999.0,
1684327072666,573125,-9999.0,685696,0,2799279,-2799279,0.0,0.0,130,572796,-9999.0,573189,-9999.0,573018,-9999.0,573158,-9999.0,
1684327072676,572857,-9999.0,687750,0,2799279,-2799279,0.0,0.0,131,572906,-9999.0,573014,-9999.0,572945,-9999.0,573029,-9999.0,
1684327072688,573068,-9999.0,689111,0,2799279,-2799279,0.0,0.0,132,572775,-9999.0,572914,-9999.0,573576,-9999.0,573436,-9999.0,
1684327072696,574104,-9999.0,692639,0,2799279,-2799279,0.0,0.0,133,573823,-9999.0,573806,-9999.0,573723,-9999.0,573082,-9999.0,
1684327072707,572962,-9999.0,697303,0,2799279,-2799279,0.0,0.0,134,573013,-9999.0,573005,-9999.0,573251,-9999.0,573750,-9999.0,
1684327072717,573815,-9999.0,699820,0,2799279,-2799279,0.0,0.0,135,574148,-9999.0,573980,-9999.0,573811,-9999.0,573560,-9999.0,
1684327072727,573160,-9999.0,700861,0,2799279,-2799279,0.0,0.0,136,572867,-9999.0,573006,-9999.0,572875,-9999.0,572764,-9999.0,
1684327072737,572552,-9999.0,701860,0,2799279,-2799279,0.0,0.0,137,572520,-9999.0,572449,-9999.0,572433,-9999.0,572246,-9999.0,
1684327072747,572290,-9999.0,703961,0,2799279,-2799279,0.0,0.0,138,571973,-9999.0,571879,-9999.0,571576,-9999.0,571525,-9999.0,
1684327072757,571497,-9999.0,707201,0,2799279,-2799279,0.0,0.0,139,571520,-9999.0,571916,-9999.0,571784,-9999.0,571543,-9999.0,
1684327072767,571509,-9999.0,710923,0,2799279,-2799279,0.0,0.0,140,571412,-9999.0,571434,-9999.0,571918,-9999.0,572608,-9999.0,
1684327072777,572780,-9999.0,713582,0,2799279,-2799279,0.0,0.0,141,572380,-9999.0,572719,-9999.0,572957,-9999.0,572635,-9999.0,
1684327072789,572349,-9999.0,712919,0,2799279,-2799279,0.0,0.0,142,572383,-9999.0,572417,-9999.0,572508,-9999.0,572736,-9999.0,
1684327072797,572814,-9999.0,708443,0,2799279,-2799279,0.0,0.0,143,573121,-9999.0,573149,-9999.0,573472,-9999.0,573539,-9999.0,
1684327072811,573763,-9999.0,703708,0,2799279,-2799279,0.0,0.0,144,573917,-9999.0,573538,-9999.0,573610,-9999.0,573976,-9999.0,
1684327072825,573952,-9999.0,698918,0,2799279,-2799279,0.0,0.0,145,573719,-9999.0,573934,-9999.0,574006,-9999.0,574175,-9999.0,
1684327072833,574141,-9999.0,694206,0,2799279,-2799279,0.0,0.0,146,574119,-9999.0,573866,-9999.0,573746,-9999.0,573623,-9999.0,
1684327072842,573811,-9999.0,693056,0,2799279,-2799279,0.0,0.0,147,574103,-9999.0,573396,-9999.0,572938,-9999.0,572712,-9999.0,
1684327072853,572895,-9999.0,696552,0,2799279,-2799279,0.0,0.0,148,572699,-9999.0,572302,-9999.0,572113,-9999.0,572245,-9999.0,
1684327072860,571577,-9999.0,700315,0,2799279,-2799279,0.0,0.0,149,571242,-9999.0,571062,-9999.0,570716,-9999.0,570418,-9999.0,
1684327072873,570450,-9999.0,705401,0,2799279,-2799279,0.0,0.0,150,570110,-9999.0,570118,-9999.0,570144,-9999.0,570363,-9999.0,
1684327072881,570239,-9999.0,708071,0,2799279,-2799279,0.0,0.0,151,570187,-9999.0,570589,-9999.0,570876,-9999.0,570999,-9999.0,
1684327072902,570923,-9999.0,707688,0,2799279,-2799279,0.0,0.0,152,570775,-9999.0,570852,-9999.0,571095,-9999.0,571350,-9999.0,
1684327072910,571593,-9999.0,708071,0,2799279,-2799279,0.0,0.0,153,572362,-9999.0,573214,-9999.0,573447,-9999.0,574105,-9999.0,
1684327072926,574601,-9999.0,711288,0,2799279,-2799279,0.0,0.0,154,575119,-9999.0,575319,-9999.0,575806,-9999.0,576795,-9999.0,
1684327072933,577460,-9999.0,716816,0,2799279,-2799279,0.0,0.0,155,578037,-9999.0,578719,-9999.0,578886,-9999.0,578752,-9999.0,
1684327072950,578200,-9999.0,723971,0,2799279,-2799279,0.0,0.0,156,577418,-9999.0,576574,-9999.0,575247,-9999.0,573686,-9999.0,
1684327072958,572497,-9999.0,732607,0,2799279,-2799279,0.0,0.0,157,571815,-9999.0,571476,-9999.0,571182,-9999.0,570899,-9999.0,
1684327072963,570720,-9999.0,744660,0,2799279,-2799279,0.0,0.0,158,570505,-9999.0,570171,-9999.0,569921,-9999.0,569740,-9999.0,
1684327072971,569439,-9999.0,763151,0,2799279,-2799279,0.0,0.0,159,569331,-9999.0,569067,-9999.0,568764,-9999.0,568770,-9999.0,
1684327072976,568906,-9999.0,790887,0,2799279,-2799279,0.0,0.0,160,568910,-9999.0,568969,-9999.0,569127,-9999.0,569587,-9999.0,
1684327072983,569883,-9999.0,828582,0,2799279,-2799279,0.0,0.0,161,570139,-9999.0,570526,-9999.0,570789,-9999.0,571416,-9999.0,
1684327072990,571612,-9999.0,866891,0,2799279,-2799279,0.0,0.0,162,571962,-9999.0,572266,-9999.0,573172,-9999.0,573616,-9999.0,
1684327072999,573801,-9999.0,902284,0,2799279,-2799279,0.0,0.0,163,574356,-9999.0,574591,-9999.0,574802,-9999.0,574981,-9999.0,
1684327073009,575529,-9999.0,923763,0,2799279,-2799279,0.0,0.0,164,575495,-9999.0,575843,-9999.0,576171,-9999.0,576315,-9999.0,
1684327073020,576115,-9999.0,931539,0,2799279,-2799279,0.0,0.0,165,576437,-9999.0,576628,-9999.0,576608,-9999.0,576720,-9999.0,
1684327073030,576675,-9999.0,925808,0,2799279,-2799279,0.0,0.0,166,576654,-9999.0,576604,-9999.0,576815,-9999.0,576916,-9999.0,
1684327073039,576803,-9999.0,907666,0,2799279,-2799279,0.0,0.0,167,576679,-9999.0,576685,-9999.0,576732,-9999.0,576658,-9999.0,
1684327073049,576649,-9999.0,880437,0,2799279,-2799279,0.0,0.0,168,576576,-9999.0,576660,-9999.0,576648,-9999.0,576366,-9999.0,
1684327073060,576421,-9999.0,858329,0,2799279,-2799279,0.0,0.0,169,576530,-9999.0,576605,-9999.0,576715,-9999.0,576564,-9999.0,
1684327073069,576644,-9999.0,844761,0,2799279,-2799279,0.0,0.0,170,576533,-9999.0,576449,-9999.0,576413,-9999.0,576298,-9999.0,
1684327073081,576238,-9999.0,838110,0,2799279,-2799279,0.0,0.0,171,576155,-9999.0,576253,-9999.0,576275,-9999.0,576314,-9999.0,
1684327073090,576520,-9999.0,837039,0,2799279,-2799279,0.0,0.0,172,576685,-9999.0,576464,-9999.0,576569,-9999.0,576366,-9999.0,
1684327073099,576255,-9999.0,836720,0,2799279,-2799279,0.0,0.0,173,576333,-9999.0,576274,-9999.0,576406,-9999.0,576373,-9999.0,575868,-9999.0,576154,-9999.0,576253,-9999.0,576147,-9999.0,575997,-9999.0,
1684327073110,575908,-9999.0,827601,0,2799279,-2799279,0.0,0.0,174,575963,-9999.0,575960,-9999.0,575865,-9999.0,575913,-9999.0,
1684327073120,575714,-9999.0,817896,0,2799279,-2799279,0.0,0.0,175,575740,-9999.0,575604,-9999.0,575546,-9999.0,575489,-9999.0,
1684327073130,575390,-9999.0,813305,0,2799279,-2799279,0.0,0.0,176,575434,-9999.0,575164,-9999.0,575093,-9999.0,574961,-9999.0,
1684327073140,575068,-9999.0,808962,0,2799279,-2799279,0.0,0.0,177,575041,-9999.0,575072,-9999.0,574921,-9999.0,574740,-9999.0,
1684327073150,574483,-9999.0,802739,0,2799279,-2799279,0.0,0.0,178,574293,-9999.0,574327,-9999.0,574058,-9999.0,573798,-9999.0,
1684327073160,573707,-9999.0,794397,0,2799279,-2799279,0.0,0.0,179,573587,-9999.0,573280,-9999.0,573340,-9999.0,572857,-9999.0,
1684327073171,573333,-9999.0,783447,0,2799279,-2799279,0.0,0.0,180,572934,-9999.0,572839,-9999.0,572688,-9999.0,572951,-9999.0,
1684327073180,572941,-9999.0,772201,0,2799279,-2799279,0.0,0.0,181,572909,-9999.0,572994,-9999.0,572784,-9999.0,573136,-9999.0,
1684327073192,573572,-9999.0,762578,0,2799279,-2799279,0.0,0.0,182,573108,-9999.0,573170,-9999.0,573082,-9999.0,573057,-9999.0,
1684327073201,572883,-9999.0,754191,0,2799279,-2799279,0.0,0.0,183,572702,-9999.0,572596,-9999.0,572624,-9999.0,572656,-9999.0,
1684327073210,572475,-9999.0,745927,0,2799279,-2799279,0.0,0.0,184,572370,-9999.0,572481,-9999.0,572264,-9999.0,572106,-9999.0,
1684327073221,571875,-9999.0,735786,0,2799279,-2799279,0.0,0.0,185,571835,-9999.0,571648,-9999.0,571641,-9999.0,571529,-9999.0,
1684327073231,571713,-9999.0,726258,0,2799279,-2799279,0.0,0.0,186,571485,-9999.0,571338,-9999.0,571255,-9999.0,571744,-9999.0,
1684327073241,571482,-9999.0,716274,0,2799279,-2799279,0.0,0.0,187,571282,-9999.0,570649,-9999.0,570464,-9999.0,570812,-9999.0,
1684327073251,571103,-9999.0,708082,0,2799279,-2799279,0.0,0.0,188,570709,-9999.0,570625,-9999.0,570540,-9999.0,570382,-9999.0,
1684327073260,570182,-9999.0,703371,0,2799279,-2799279,0.0,0.0,189,569896,-9999.0,569582,-9999.0,569360,-9999.0,569186,-9999.0,
1684327073271,568977,-9999.0,701648,0,2799279,-2799279,0.0,0.0,190,569067,-9999.0,568690,-9999.0,568566,-9999.0,568723,-9999.0,
1684327073281,568549,-9999.0,699335,0,2799279,-2799279,0.0,0.0,191,568244,-9999.0,568193,-9999.0,568328,-9999.0,568348,-9999.0,
1684327073292,568241,-9999.0,696171,0,2799279,-2799279,0.0,0.0,192,568233,-9999.0,568098,-9999.0,568056,-9999.0,567829,-9999.0,
1684327073301,568008,-9999.0,692154,0,2799279,-2799279,0.0,0.0,193,567815,-9999.0,567813,-9999.0,567742,-9999.0,567420,-9999.0,
1684327073312,567679,-9999.0,687795,0,2799279,-2799279,0.0,0.0,194,567654,-9999.0,567586,-9999.0,567504,-9999.0,567512,-9999.0,
1684327073321,567582,-9999.0,683279,0,2799279,-2799279,0.0,0.0,195,567532,-9999.0,567512,-9999.0,567233,-9999.0,567166,-9999.0,
1684327073334,567319,-9999.0,680230,0,2799279,-2799279,0.0,0.0,196,567499,-9999.0,567631,-9999.0,567678,-9999.0,567522,-9999.0,
1684327073341,567755,-9999.0,678816,0,2799279,-2799279,0.0,0.0,197,567781,-9999.0,567731,-9999.0,567612,-9999.0,567608,-9999.0,
1684327073351,567714,-9999.0,678911,0,2799279,-2799279,0.0,0.0,198,567453,-9999.0,567202,-9999.0,567542,-9999.0,567801,-9999.0,
1684327073361,567710,-9999.0,680428,0,2799279,-2799279,0.0,0.0,199,567624,-9999.0,567297,-9999.0,566963,-9999.0,567046,-9999.0,
1684327073372,566978,-9999.0,682160,0,2799279,-2799279,0.0,0.0,200,566575,-9999.0,566513,-9999.0,566435,-9999.0,566537,-9999.0,
1684327073381,566473,-9999.0,683865,0,2799279,-2799279,0.0,0.0,201,566337,-9999.0,566274,-9999.0,566416,-9999.0,566989,-9999.0,
1684327073393,566991,-9999.0,686326,0,2799279,-2799279,0.0,0.0,202,566485,-9999.0,566380,-9999.0,566656,-9999.0,566234,-9999.0,
1684327073401,566477,-9999.0,689636,0,2799279,-2799279,0.0,0.0,203,566416,-9999.0,566376,-9999.0,566496,-9999.0,566643,-9999.0,
1684327073412,566654,-9999.0,691137,0,2799279,-2799279,0.0,0.0,204,566794,-9999.0,566861,-9999.0,566963,-9999.0,566933,-9999.0,
1684327073422,566883,-9999.0,691463,0,2799279,-2799279,0.0,0.0,205,566915,-9999.0,566913,-9999.0,566870,-9999.0,566933,-9999.0,
1684327073433,566970,-9999.0,691169,0,2799279,-2799279,0.0,0.0,206,566915,-9999.0,566855,-9999.0,566676,-9999.0,566524,-9999.0,
1684327073441,566444,-9999.0,690988,0,2799279,-2799279,0.0,0.0,207,566054,-9999.0,565908,-9999.0,565770,-9999.0,565737,-9999.0,
1684327073452,565660,-9999.0,692278,0,2799279,-2799279,0.0,0.0,208,565410,-9999.0,565485,-9999.0,565466,-9999.0,565182,-9999.0,
1684327073463,565302,-9999.0,696209,0,2799279,-2799279,0.0,0.0,209,565262,-9999.0,564875,-9999.0,564653,-9999.0,564172,-9999.0,
1684327073475,563753,-9999.0,702893,0,2799279,-2799279,0.0,0.0,210,563591,-9999.0,563299,-9999.0,563254,-9999.0,563004,-9999.0,
1684327073489,562838,-9999.0,712909,0,2799279,-2799279,0.0,0.0,211,562804,-9999.0,562394,-9999.0,562140,-9999.0,561992,-9999.0,
1684327073497,561857,-9999.0,725742,0,2799279,-2799279,0.0,0.0,212,561787,-9999.0,561507,-9999.0,561498,-9999.0,561388,-9999.0,
1684327073504,561234,-9999.0,739383,0,2799279,-2799279,0.0,0.0,213,561010,-9999.0,560873,-9999.0,560979,-9999.0,560827,-9999.0,
1684327073521,560800,-9999.0,751135,0,2799279,-2799279,0.0,0.0,214,560802,-9999.0,560431,-9999.0,560338,-9999.0,560296,-9999.0,
1684327073526,560021,-9999.0,758698,0,2799279,-2799279,0.0,0.0,215,559927,-9999.0,560182,-9999.0,560137,-9999.0,560253,-9999.0,
1684327073534,559787,-9999.0,764390,0,2799279,-2799279,0.0,0.0,216,559705,-9999.0,559846,-9999.0,560182,-9999.0,560170,-9999.0,
1684327073544,560358,-9999.0,769087,0,2799279,-2799279,0.0,0.0,217,560640,-9999.0,561044,-9999.0,561640,-9999.0,562058,-9999.0,
1684327073554,562690,-9999.0,778937,0,2799279,-2799279,0.0,0.0,218,563493,-9999.0,563700,-9999.0,564166,-9999.0,564914,-9999.0,
1684327073567,565555,-9999.0,798381,0,2799279,-2799279,0.0,0.0,219,565779,-9999.0,566306,-9999.0,566849,-9999.0,566710,-9999.0,
1684327073573,566314,-9999.0,829032,0,2799279,-2799279,0.0,0.0,220,565651,-9999.0,564772,-9999.0,563702,-9999.0,562908,-9999.0,
1684327073585,562085,-9999.0,870667,0,2799279,-2799279,0.0,0.0,221,560435,-9999.0,559717,-9999.0,560491,-9999.0,560344,-9999.0,
1684327073595,559593,-9999.0,916705,0,2799279,-2799279,0.0,0.0,222,559906,-9999.0,559894,-9999.0,559641,-9999.0,559716,-9999.0,
1684327073603,559810,-9999.0,948635,0,2799279,-2799279,0.0,0.0,223,559752,-9999.0,559699,-9999.0,559728,-9999.0,559494,-9999.0,
1684327073614,559385,-9999.0,949308,0,2799279,-2799279,0.0,0.0,224,559365,-9999.0,559310,-9999.0,559143,-9999.0,558888,-9999.0,
1684327073623,558725,-9999.0,942756,0,2799279,-2799279,0.0,0.0,225,558875,-9999.0,558963,-9999.0,558712,-9999.0,558546,-9999.0,
1684327073634,558501,-9999.0,937980,0,2799279,-2799279,0.0,0.0,226,558269,-9999.0,558441,-9999.0,558371,-9999.0,558443,-9999.0,
1684327073643,558626,-9999.0,935325,0,2799279,-2799279,0.0,0.0,227,558359,-9999.0,558402,-9999.0,558562,-9999.0,558560,-9999.0,
1684327073655,558683,-9999.0,934320,0,2799279,-2799279,0.0,0.0,228,559103,-9999.0,559098,-9999.0,558625,-9999.0,558809,-9999.0,
1684327073663,559147,-9999.0,933013,0,2799279,-2799279,0.0,0.0,229,558781,-9999.0,558793,-9999.0,558887,-9999.0,558928,-9999.0,
1684327073674,558907,-9999.0,932266,0,2799279,-2799279,0.0,0.0,230,558560,-9999.0,558434,-9999.0,558406,-9999.0,558415,-9999.0,
1684327073683,558386,-9999.0,936434,0,2799279,-2799279,0.0,0.0,231,558435,-9999.0,558621,-9999.0,558791,-9999.0,558657,-9999.0,
1684327073695,558731,-9999.0,942638,0,2799279,-2799279,0.0,0.0,232,558872,-9999.0,558779,-9999.0,559098,-9999.0,559247,-9999.0,
1684327073703,559311,-9999.0,950131,0,2799279,-2799279,0.0,0.0,233,559321,-9999.0,559047,-9999.0,559126,-9999.0,559410,-9999.0,
1684327073714,559322,-9999.0,956736,0,2799279,-2799279,0.0,0.0,234,559382,-9999.0,559235,-9999.0,559063,-9999.0,559597,-9999.0,
1684327073724,559508,-9999.0,964691,0,2799279,-2799279,0.0,0.0,235,559760,-9999.0,559955,-9999.0,560075,-9999.0,559855,-9999.0,
1684327073734,559924,-9999.0,966989,0,2799279,-2799279,0.0,0.0,236,560071,-9999.0,560338,-9999.0,560316,-9999.0,560480,-9999.0,
1684327073744,560575,-9999.0,969396,0,2799279,-2799279,0.0,0.0,237,560767,-9999.0,560308,-9999.0,560756,-9999.0,560987,-9999.0,
1684327073754,561152,-9999.0,970250,0,2799279,-2799279,0.0,0.0,238,561381,-9999.0,561373,-9999.0,561153,-9999.0,561251,-9999.0,
1684327073764,561037,-9999.0,968846,0,2799279,-2799279,0.0,0.0,239,560951,-9999.0,560899,-9999.0,561073,-9999.0,561001,-9999.0,
1684327073776,560910,-9999.0,965103,0,2799279,-2799279,0.0,0.0,240,560718,-9999.0,560806,-9999.0,560626,-9999.0,560711,-9999.0,
1684327073786,560674,-9999.0,957651,0,2799279,-2799279,0.0,0.0,241,560496,-9999.0,560386,-9999.0,560523,-9999.0,560242,-9999.0,
1684327073797,559830,-9999.0,945723,0,2799279,-2799279,0.0,0.0,242,559799,-9999.0,559720,-9999.0,558976,-9999.0,558975,-9999.0,
1684327073804,558932,-9999.0,928826,0,2799279,-2799279,0.0,0.0,243,558653,-9999.0,558176,-9999.0,558025,-9999.0,557818,-9999.0,
1684327073814,557676,-9999.0,916859,0,2799279,-2799279,0.0,0.0,244,557637,-9999.0,557689,-9999.0,557801,-9999.0,557841,-9999.0,
1684327073825,557745,-9999.0,916133,0,2799279,-2799279,0.0,0.0,245,557987,-9999.0,557864,-9999.0,557833,-9999.0,557952,-9999.0,
1684327073835,558008,-9999.0,928990,0,2799279,-2799279,0.0,0.0,246,558166,-9999.0,558455,-9999.0,558565,-9999.0,558787,-9999.0,
1684327073845,559046,-9999.0,949007,0,2799279,-2799279,0.0,0.0,247,559059,-9999.0,559162,-9999.0,559092,-9999.0,559521,-9999.0,
1684327073855,559476,-9999.0,967330,0,2799279,-2799279,0.0,0.0,248,559669,-9999.0,559894,-9999.0,560162,-9999.0,560489,-9999.0,
1684327073865,560630,-9999.0,980839,0,2799279,-2799279,0.0,0.0,249,560795,-9999.0,560903,-9999.0,561140,-9999.0,560918,-9999.0,
1684327073875,560849,-9999.0,987915,0,2799279,-2799279,0.0,0.0,250,561271,-9999.0,561503,-9999.0,561343,-9999.0,561353,-9999.0,
1684327073885,561746,-9999.0,991731,0,2799279,-2799279,0.0,0.0,251,561686,-9999.0,561643,-9999.0,561799,-9999.0,562141,-9999.0,
1684327073896,562179,-9999.0,993919,0,2799279,-2799279,0.0,0.0,252,562718,-9999.0,563244,-9999.0,563380,-9999.0,563587,-9999.0,
1684327073905,563638,-9999.0,997532,0,2799279,-2799279,0.0,0.0,253,563527,-9999.0,563923,-9999.0,563812,-9999.0,564202,-9999.0,
1684327073917,564666,-9999.0,1004213,0,2799279,-2799279,0.0,0.0,254,564863,-9999.0,564970,-9999.0,565031,-9999.0,564692,-9999.0,
1684327073928,564998,-9999.0,1015220,0,2799279,-2799279,0.0,0.0,255,565195,-9999.0,565171,-9999.0,565039,-9999.0,565096,-9999.0,
1684327073936,565314,-9999.0,1026609,0,2799279,-2799279,0.0,0.0,0,565492,-9999.0,565729,-9999.0,565767,-9999.0,566015,-9999.0,
1684327073945,566113,-9999.0,1032743,0,2799279,-2799279,0.0,0.0,1,566232,-9999.0,566190,-9999.0,566388,-9999.0,566543,-9999.0,
1684327073956,566573,-9999.0,1034057,0,2799279,-2799279,0.0,0.0,2,566819,-9999.0,567098,-9999.0,567307,-9999.0,567476,-9999.0,
1684327073965,567495,-9999.0,1031100,0,2799279,-2799279,0.0,0.0,3,567590,-9999.0,567627,-9999.0,567706,-9999.0,567857,-9999.0,
1684327073977,567993,-9999.0,1025716,0,2799279,-2799279,0.0,0.0,4,568205,-9999.0,568227,-9999.0,568301,-9999.0,568151,-9999.0,
1684327073985,568237,-9999.0,1019386,0,2799279,-2799279,0.0,0.0,5,568231,-9999.0,568269,-9999.0,568434,-9999.0,568498,-9999.0,
1684327073998,568678,-9999.0,1012454,0,2799279,-2799279,0.0,0.0,6,568399,-9999.0,568622,-9999.0,568615,-9999.0,568554,-9999.0,
1684327074005,568466,-9999.0,1003660,0,2799279,-2799279,0.0,0.0,7,568247,-9999.0,568454,-9999.0,568746,-9999.0,568436,-9999.0,
1684327074016,568526,-9999.0,993367,0,2799279,-2799279,0.0,0.0,8,568557,-9999.0,568562,-9999.0,568605,-9999.0,568804,-9999.0,
1684327074025,568681,-9999.0,979361,0,2799279,-2799279,0.0,0.0,9,568650,-9999.0,568801,-9999.0,568876,-9999.0,568913,-9999.0,
1684327074039,568918,-9999.0,960852,0,2799279,-2799279,0.0,0.0,10,569039,-9999.0,569049,-9999.0,568932,-9999.0,569123,-9999.0,
1684327074046,569442,-9999.0,939287,0,2799279,-2799279,0.0,0.0,11,569457,-9999.0,569224,-9999.0,569481,-9999.0,569482,-9999.0,
1684327074056,569328,-9999.0,920293,0,2799279,-2799279,0.0,0.0,12,569605,-9999.0,569579,-9999.0,569785,-9999.0,569997,-9999.0,
1684327074066,570136,-9999.0,911697,0,2799279,-2799279,0.0,0.0,13,570187,-9999.0,570182,-9999.0,570476,-9999.0,570612,-9999.0,
1684327074076,570701,-9999.0,921640,0,2799279,-2799279,0.0,0.0,14,570460,-9999.0,570847,-9999.0,570922,-9999.0,571023,-9999.0,
1684327074087,570704,-9999.0,940403,0,2799279,-2799279,0.0,0.0,15,570877,-9999.0,571189,-9999.0,570824,-9999.0,570362,-9999.0,
1684327074102,570429,-9999.0,955022,0,2799279,-2799279,0.0,0.0,16,570656,-9999.0,570431,-9999.0,570263,-9999.0,570106,-9999.0,
1684327074108,569817,-9999.0,963690,0,2799279,-2799279,0.0,0.0,17,569714,-9999.0,569047,-9999.0,569100,-9999.0,569215,-9999.0,
1684327074116,568984,-9999.0,964683,0,2799279,-2799279,0.0,0.0,18,568950,-9999.0,569063,-9999.0,568910,-9999.0,569120,-9999.0,
1684327074126,569234,-9999.0,961181,0,2799279,-2799279,0.0,0.0,19,569232,-9999.0,569298,-9999.0,569383,-9999.0,569461,-9999.0,
1684327074136,569405,-9999.0,954753,0,2799279,-2799279,0.0,0.0,20,569474,-9999.0,569608,-9999.0,569587,-9999.0,569660,-9999.0,
1684327074146,570054,-9999.0,945439,0,2799279,-2799279,0.0,0.0,21,569980,-9999.0,569923,-9999.0,570094,-9999.0,570091,-9999.0,
1684327074157,570286,-9999.0,932206,0,2799279,-2799279,0.0,0.0,22,570350,-9999.0,570454,-9999.0,570486,-9999.0,570646,-9999.0,
1684327074167,570582,-9999.0,915037,0,2799279,-2799279,0.0,0.0,23,570472,-9999.0,569951,-9999.0,570000,-9999.0,570058,-9999.0,
1684327074177,570044,-9999.0,897525,0,2799279,-2799279,0.0,0.0,24,570598,-9999.0,571076,-9999.0,571313,-9999.0,571966,-9999.0,
1684327074187,572513,-9999.0,879293,0,2799279,-2799279,0.0,0.0,25,572981,-9999.0,573711,-9999.0,573799,-9999.0,574798,-9999.0,
1684327074198,575379,-9999.0,855263,0,2799279,-2799279,0.0,0.0,26,575916,-9999.0,576656,-9999.0,576855,-9999.0,577457,-9999.0,
1684327074207,577811,-9999.0,830024,0,2799279,-2799279,0.0,0.0,27,577418,-9999.0,576646,-9999.0,576039,-9999.0,575067,-9999.0,
1684327074217,573770,-9999.0,807612,0,2799279,-2799279,0.0,0.0,28,572686,-9999.0,571540,-9999.0,570797,-9999.0,570438,-9999.0,
1684327074227,570270,-9999.0,786314,0,2799279,-2799279,0.0,0.0,29,570247,-9999.0,570160,-9999.0,570227,-9999.0,570532,-9999.0,
1684327074237,570473,-9999.0,765666,0,2799279,-2799279,0.0,0.0,30,570541,-9999.0,570146,-9999.0,569829,-9999.0,570120,-9999.0,
1684327074247,570263,-9999.0,748126,0,2799279,-2799279,0.0,0.0,31,570310,-9999.0,569981,-9999.0,569961,-9999.0,569756,-9999.0,
1684327074258,569489,-9999.0,733352,0,2799279,-2799279,0.0,0.0,32,569657,-9999.0,569494,-9999.0,569125,-9999.0,569057,-9999.0,
1684327074267,569260,-9999.0,721180,0,2799279,-2799279,0.0,0.0,33,569091,-9999.0,568893,-9999.0,569155,-9999.0,569092,-9999.0,
1684327074278,568995,-9999.0,709838,0,2799279,-2799279,0.0,0.0,34,569186,-9999.0,569288,-9999.0,569425,-9999.0,569247,-9999.0,
1684327074288,569696,-9999.0,698789,0,2799279,-2799279,0.0,0.0,35,569872,-9999.0,569772,-9999.0,569733,-9999.0,569609,-9999.0,
1684327074299,570086,-9999.0,687065,0,2799279,-2799279,0.0,0.0,36,569636,-9999.0,569455,-9999.0,569339,-9999.0,569636,-9999.0,
1684327074308,569469,-9999.0,676894,0,2799279,-2799279,0.0,0.0,37,569626,-9999.0,569963,-9999.0,570035,-9999.0,569773,-9999.0,
1684327074318,569210,-9999.0,669817,0,2799279,-2799279,0.0,0.0,38,569351,-9999.0,569562,-9999.0,569302,-9999.0,569690,-9999.0,
1684327074328,569764,-9999.0,662715,0,2799279,-2799279,0.0,0.0,39,569375,-9999.0,569212,-9999.0,569105,-9999.0,569076,-9999.0,
1684327074339,568849,-9999.0,657130,0,2799279,-2799279,0.0,0.0,40,568817,-9999.0,568563,-9999.0,568705,-9999.0,568886,-9999.0,
1684327074349,568880,-9999.0,652753,0,2799279,-2799279,0.0,0.0,41,569083,-9999.0,568785,-9999.0,569252,-9999.0,569505,-9999.0,
1684327074360,569347,-9999.0,649481,0,2799279,-2799279,0.0,0.0,42,569296,-9999.0,569251,-9999.0,569302,-9999.0,569376,-9999.0,
1684327074369,569326,-9999.0,646491,0,2799279,-2799279,0.0,0.0,43,569425,-9999.0,569306,-9999.0,569169,-9999.0,568844,-9999.0,
1684327074378,569258,-9999.0,643972,0,2799279,-2799279,0.0,0.0,44,569203,-9999.0,569282,-9999.0,569386,-9999.0,569859,-9999.0,
1684327074389,569860,-9999.0,642244,0,2799279,-2799279,0.0,0.0,45,569746,-9999.0,569853,-9999.0,569793,-9999.0,569760,-9999.0,
1684327074400,569790,-9999.0,641091,0,2799279,-2799279,0.0,0.0,46,569813,-9999.0,569705,-9999.0,569646,-9999.0,569923,-9999.0,
1684327074408,569916,-9999.0,639980,0,2799279,-2799279,0.0,0.0,47,569901,-9999.0,569909,-9999.0,569856,-9999.0,569513,-9999.0,
1684327074419,569837,-9999.0,639152,0,2799279,-2799279,0.0,0.0,48,569604,-9999.0,569378,-9999.0,569481,-9999.0,569712,-9999.0,
1684327074432,569583,-9999.0,638270,0,2799279,-2799279,0.0,0.0,49,569314,-9999.0,569080,-9999.0,569025,-9999.0,568792,-9999.0,
1684327074444,568722,-9999.0,637716,0,2799279,-2799279,0.0,0.0,50,569025,-9999.0,568820,-9999.0,568621,-9999.0,568506,-9999.0,
1684327074452,568315,-9999.0,637106,0,2799279,-2799279,0.0,0.0,51,568181,-9999.0,567847,-9999.0,567447,-9999.0,567463,-9999.0,
1684327074459,567173,-9999.0,636776,0,2799279,-2799279,0.0,0.0,52,567136,-9999.0,567011,-9999.0,567014,-9999.0,566819,-9999.0,
1684327074469,566742,-9999.0,636319,0,2799279,-2799279,0.0,0.0,53,566529,-9999.0,566385,-9999.0,566316,-9999.0,566062,-9999.0,
1684327074479,566089,-9999.0,635771,0,2799279,-2799279,0.0,0.0,54,566005,-9999.0,566153,-9999.0,566069,-9999.0,566240,-9999.0,
1684327074489,566262,-9999.0,635273,0,2799279,-2799279,0.0,0.0,55,566097,-9999.0,565887,-9999.0,565994,-9999.0,565848,-9999.0,
1684327074500,565895,-9999.0,634765,0,2799279,-2799279,0.0,0.0,56,565808,-9999.0,565778,-9999.0,565750,-9999.0,565736,-9999.0,
1684327074510,565700,-9999.0,634575,0,2799279,-2799279,0.0,0.0,57,565659,-9999.0,565729,-9999.0,565779,-9999.0,565652,-9999.0,
1684327074519,565619,-9999.0,634361,0,2799279,-2799279,0.0,0.0,58,565727,-9999.0,565723,-9999.0,565724,-9999.0,565672,-9999.0,
1684327074530,565460,-9999.0,634300,0,2799279,-2799279,0.0,0.0,59,565828,-9999.0,566047,-9999.0,565619,-9999.0,565652,-9999.0,
1684327074540,565967,-9999.0,634479,0,2799279,-2799279,0.0,0.0,60,566086,-9999.0,566101,-9999.0,565807,-9999.0,566066,-9999.0,
1684327074550,566274,-9999.0,634556,0,2799279,-2799279,0.0,0.0,61,566382,-9999.0,566294,-9999.0,566200,-9999.0,566162,-9999.0,
1684327074560,566196,-9999.0,634259,0,2799279,-2799279,0.0,0.0,62,566252,-9999.0,566298,-9999.0,566201,-9999.0,566163,-9999.0,
1684327074569,566037,-9999.0,633965,0,2799279,-2799279,0.0,0.0,63,566054,-9999.0,566047,-9999.0,566176,-9999.0,566282,-9999.0,
1684327074580,566141,-9999.0,633752,0,2799279,-2799279,0.0,0.0,64,566364,-9999.0,566505,-9999.0,566630,-9999.0,566873,-9999.0,
1684327074589,566931,-9999.0,633466,0,2799279,-2799279,0.0,0.0,65,566945,-9999.0,566969,-9999.0,567080,-9999.0,566983,-9999.0,
1684327074601,567078,-9999.0,633466,0,2799279,-2799279,0.0,0.0,66,567011,-9999.0,566879,-9999.0,567154,-9999.0,566993,-9999.0,
1684327074610,566999,-9999.0,633278,0,2799279,-2799279,0.0,0.0,67,566791,-9999.0,566571,-9999.0,566947,-9999.0,566736,-9999.0,
1684327074620,566762,-9999.0,633197,0,2799279,-2799279,0.0,0.0,68,566969,-9999.0,566512,-9999.0,566731,-9999.0,566818,-9999.0,
1684327074630,566731,-9999.0,633421,0,2799279,-2799279,0.0,0.0,69,566416,-9999.0,566325,-9999.0,566493,-9999.0,566654,-9999.0,
1684327074640,566547,-9999.0,633547,0,2799279,-2799279,0.0,0.0,70,566549,-9999.0,566595,-9999.0,566750,-9999.0,566676,-9999.0,
1684327074650,566487,-9999.0,633688,0,2799279,-2799279,0.0,0.0,71,566408,-9999.0,566610,-9999.0,566509,-9999.0,566525,-9999.0,
1684327074660,566706,-9999.0,633788,0,2799279,-2799279,0.0,0.0,72,566679,-9999.0,566755,-9999.0,566572,-9999.0,566610,-9999.0,
1684327074670,566423,-9999.0,633892,0,2799279,-2799279,0.0,0.0,73,566428,-9999.0,566153,-9999.0,566055,-9999.0,566208,-9999.0,
1684327074680,566134,-9999.0,634016,0,2799279,-2799279,0.0,0.0,74,565911,-9999.0,565973,-9999.0,565864,-9999.0,565774,-9999.0,
1684327074690,565645,-9999.0,634127,0,2799279,-2799279,0.0,0.0,75,565735,-9999.0,565750,-9999.0,565639,-9999.0,565473,-9999.0,565657,-9999.0,565653,-9999.0,565691,-9999.0,565703,-9999.0,565648,-9999.0,
1684327074702,565469,-9999.0,634114,0,2799279,-2799279,0.0,0.0,76,565473,-9999.0,565588,-9999.0,565449,-9999.0,565735,-9999.0,
1684327074710,565324,-9999.0,634380,0,2799279,-2799279,0.0,0.0,77,565324,-9999.0,565660,-9999.0,565871,-9999.0,565641,-9999.0,
1684327074721,565518,-9999.0,634788,0,2799279,-2799279,0.0,0.0,78,565397,-9999.0,565539,-9999.0,565559,-9999.0,564890,-9999.0,
1684327074731,565373,-9999.0,635185,0,2799279,-2799279,0.0,0.0,79,565253,-9999.0,565157,-9999.0,565127,-9999.0,565239,-9999.0,
1684327074741,565243,-9999.0,635612,0,2799279,-2799279,0.0,0.0,80,565091,-9999.0,564980,-9999.0,564899,-9999.0,564912,-9999.0,
1684327074751,564719,-9999.0,636055,0,2799279,-2799279,0.0,0.0,81,564675,-9999.0,564548,-9999.0,564349,-9999.0,564203,-9999.0,
1684327074761,564001,-9999.0,636377,0,2799279,-2799279,0.0,0.0,82,563988,-9999.0,563912,-9999.0,563784,-9999.0,563411,-9999.0,
1684327074771,563565,-9999.0,636706,0,2799279,-2799279,0.0,0.0,83,563359,-9999.0,563467,-9999.0,563240,-9999.0,563039,-9999.0,
1684327074781,563080,-9999.0,637021,0,2799279,-2799279,0.0,0.0,84,562832,-9999.0,562459,-9999.0,562586,-9999.0,562403,-9999.0,
1684327074791,562225,-9999.0,637352,0,2799279,-2799279,0.0,0.0,85,561814,-9999.0,561691,-9999.0,561391,-9999.0,561001,-9999.0,
1684327074802,561062,-9999.0,637823,0,2799279,-2799279,0.0,0.0,86,561023,-9999.0,560608,-9999.0,560987,-9999.0,561003,-9999.0,
1684327074811,561184,-9999.0,638303,0,2799279,-2799279,0.0,0.0,87,561730,-9999.0,561769,-9999.0,561785,-9999.0,562502,-9999.0,
1684327074825,562805,-9999.0,638902,0,2799279,-2799279,0.0,0.0,88,562928,-9999.0,563590,-9999.0,564211,-9999.0,564369,-9999.0,
1684327074831,564715,-9999.0,639751,0,2799279,-2799279,0.0,0.0,89,565510,-9999.0,565209,-9999.0,564476,-9999.0,563620,-9999.0,
1684327074845,563061,-9999.0,640666,0,2799279,-2799279,0.0,0.0,90,561698,-9999.0,559940,-9999.0,558504,-9999.0,557589,-9999.0,
1684327074853,556802,-9999.0,641564,0,2799279,-2799279,0.0,0.0,91,556583,-9999.0,556693,-9999.0,556678,-9999.0,556729,-9999.0,
1684327074862,556821,-9999.0,642394,0,2799279,-2799279,0.0,0.0,92,556321,-9999.0,556232,-9999.0,556555,-9999.0,556093,-9999.0,
1684327074872,556155,-9999.0,643044,0,2799279,-2799279,0.0,0.0,93,556057,-9999.0,556116,-9999.0,555739,-9999.0,556180,-9999.0,
1684327074882,556000,-9999.0,643746,0,2799279,-2799279,0.0,0.0,94,555829,-9999.0,555546,-9999.0,555612,-9999.0,555539,-9999.0,
1684327074892,555300,-9999.0,644515,0,2799279,-2799279,0.0,0.0,95,555248,-9999.0,555192,-9999.0,554939,-9999.0,554919,-9999.0,
1684327074904,554671,-9999.0,645118,0,2799279,-2799279,0.0,0.0,96,554692,-9999.0,554587,-9999.0,554835,-9999.0,554660,-9999.0,
1684327074917,554841,-9999.0,645857,0,2799279,-2799279,0.0,0.0,97,554825,-9999.0,554687,-9999.0,555005,-9999.0,554906,-9999.0,
1684327074922,555010,-9999.0,646280,0,2799279,-2799279,0.0,0.0,98,554780,-9999.0,554747,-9999.0,554732,-9999.0,555267,-9999.0,
1684327074932,555299,-9999.0,646981,0,2799279,-2799279,0.0,0.0,99,555230,-9999.0,555502,-9999.0,555327,-9999.0,555654,-9999.0,
1684327074942,555854,-9999.0,647544,0,2799279,-2799279,0.0,0.0,100,555834,-9999.0,555753,-9999.0,555957,-9999.0,556339,-9999.0,
1684327074952,556418,-9999.0,648327,0,2799279,-2799279,0.0,0.0,101,556502,-9999.0,556273,-9999.0,556713,-9999.0,556952,-9999.0,
1684327074962,556780,-9999.0,649099,0,2799279,-2799279,0.0,0.0,102,556743,-9999.0,556802,-9999.0,556810,-9999.0,557537,-9999.0,
1684327074972,557712,-9999.0,649722,0,2799279,-2799279,0.0,0.0,103,557785,-9999.0,557972,-9999.0,558040,-9999.0,558243,-9999.0,
1684327074982,558244,-9999.0,650246,0,2799279,-2799279,0.0,0.0,104,558480,-9999.0,558625,-9999.0,558630,-9999.0,558720,-9999.0,
1684327074992,558835,-9999.0,650669,0,2799279,-2799279,0.0,0.0,105,558980,-9999.0,559111,-9999.0,559109,-9999.0,559263,-9999.0,
1684327075004,559297,-9999.0,651031,0,2799279,-2799279,0.0,0.0,106,559314,-9999.0,559314,-9999.0,559409,-9999.0,559369,-9999.0,
1684327075012,559364,-9999.0,651347,0,2799279,-2799279,0.0,0.0,107,559608,-9999.0,559553,-9999.0,559374,-9999.0,559510,-9999.0,
1684327075023,559472,-9999.0,651704,0,2799279,-2799279,0.0,0.0,108,559497,-9999.0,559551,-9999.0,559613,-9999.0,559545,-9999.0,
1684327075033,559480,-9999.0,651975,0,2799279,-2799279,0.0,0.0,109,559587,-9999.0,559704,-9999.0,559530,-9999.0,559418,-9999.0,
1684327075043,559545,-9999.0,652294,0,2799279,-2799279,0.0,0.0,110,559393,-9999.0,559237,-9999.0,559237,-9999.0,558920,-9999.0,
1684327075053,559287,-9999.0,652296,0,2799279,-2799279,0.0,0.0,111,559223,-9999.0,559279,-9999.0,558980,-9999.0,558938,-9999.0,
1684327075063,558927,-9999.0,652199,0,2799279,-2799279,0.0,0.0,112,558908,-9999.0,558820,-9999.0,558735,-9999.0,558644,-9999.0,
1684327075074,558700,-9999.0,652216,0,2799279,-2799279,0.0,0.0,113,558564,-9999.0,558562,-9999.0,558564,-9999.0,558553,-9999.0,
1684327075084,558366,-9999.0,652040,0,2799279,-2799279,0.0,0.0,114,557892,-9999.0,558224,-9999.0,558421,-9999.0,558234,-9999.0,
1684327075095,558092,-9999.0,651941,0,2799279,-2799279,0.0,0.0,115,558127,-9999.0,557936,-9999.0,558164,-9999.0,558234,-9999.0,
1684327075104,558098,-9999.0,651772,0,2799279,-2799279,0.0,0.0,116,558154,-9999.0,558001,-9999.0,558020,-9999.0,557876,-9999.0,
1684327075113,558016,-9999.0,651657,0,2799279,-2799279,0.0,0.0,117,558119,-9999.0,558059,-9999.0,558001,-9999.0,557824,-9999.0,
1684327075124,558062,-9999.0,651680,0,2799279,-2799279,0.0,0.0,118,557885,-9999.0,557977,-9999.0,558124,-9999.0,557777,-9999.0,
1684327075133,558063,-9999.0,651582,0,2799279,-2799279,0.0,0.0,119,557991,-9999.0,558044,-9999.0,557975,-9999.0,557895,-9999.0,
1684327075144,557881,-9999.0,651620,0,2799279,-2799279,0.0,0.0,120,557614,-9999.0,557501,-9999.0,557479,-9999.0,557279,-9999.0,
1684327075153,557005,-9999.0,651545,0,2799279,-2799279,0.0,0.0,121,556634,-9999.0,556824,-9999.0,556691,-9999.0,556752,-9999.0,
1684327075164,556460,-9999.0,651531,0,2799279,-2799279,0.0,0.0,122,556085,-9999.0,555877,-9999.0,556200,-9999.0,556706,-9999.0,
1684327075178,556370,-9999.0,651586,0,2799279,-2799279,0.0,0.0,123,556021,-9999.0,555887,-9999.0,556139,-9999.0,555713,-9999.0,
1684327075186,555794,-9999.0,651665,0,2799279,-2799279,0.0,0.0,124,555701,-9999.0,555486,-9999.0,555532,-9999.0,555425,-9999.0,
1684327075196,555518,-9999.0,651633,0,2799279,-2799279,0.0,0.0,125,555662,-9999.0,555507,-9999.0,555440,-9999.0,555548,-9999.0,
1684327075205,555252,-9999.0,651750,0,2799279,-2799279,0.0,0.0,126,555192,-9999.0,555460,-9999.0,555507,-9999.0,555356,-9999.0,
1684327075214,555333,-9999.0,651725,0,2799279,-2799279,0.0,0.0,127,555425,-9999.0,555564,-9999.0,555520,-9999.0,555425,-9999.0,
1684327075224,555451,-9999.0,651945,0,2799279,-2799279,0.0,0.0,128,555478,-9999.0,555128,-9999.0,554979,-9999.0,555098,-9999.0,
1684327075240,554995,-9999.0,651996,0,2799279,-2799279,0.0,0.0,129,555015,-9999.0,555157,-9999.0,554919,-9999.0,555311,-9999.0,
1684327075251,555332,-9999.0,652100,0,2799279,-2799279,0.0,0.0,130,555224,-9999.0,555196,-9999.0,555240,-9999.0,555367,-9999.0,
1684327075265,555479,-9999.0,652282,0,2799279,-2799279,0.0,0.0,131,555307,-9999.0,555189,-9999.0,555413,-9999.0,555124,-9999.0,
1684327075277,555495,-9999.0,652324,0,2799279,-2799279,0.0,0.0,132,555324,-9999.0,555165,-9999.0,555384,-9999.0,555363,-9999.0,
1684327075288,555285,-9999.0,652367,0,2799279,-2799279,0.0,0.0,133,555551,-9999.0,555709,-9999.0,555715,-9999.0,555620,-9999.0,
1684327075298,555587,-9999.0,652472,0,2799279,-2799279,0.0,0.0,134,555721,-9999.0,555592,-9999.0,555742,-9999.0,555914,-9999.0,
1684327075306,556041,-9999.0,652531,0,2799279,-2799279,0.0,0.0,135,556184,-9999.0,556215,-9999.0,556275,-9999.0,556305,-9999.0,
1684327075311,556374,-9999.0,652669,0,2799279,-2799279,0.0,0.0,136,556281,-9999.0,556407,-9999.0,556543,-9999.0,556526,-9999.0,
1684327075317,556662,-9999.0,652708,0,2799279,-2799279,0.0,0.0,137,556727,-9999.0,556666,-9999.0,556709,-9999.0,556450,-9999.0,
1684327075325,556642,-9999.0,652821,0,2799279,-2799279,0.0,0.0,138,556686,-9999.0,556833,-9999.0,557252,-9999.0,557052,-9999.0,
1684327075335,557375,-9999.0,652842,0,2799279,-2799279,0.0,0.0,139,557051,-9999.0,557208,-9999.0,557390,-9999.0,557740,-9999.0,
1684327075345,557848,-9999.0,652823,0,2799279,-2799279,0.0,0.0,140,557805,-9999.0,558370,-9999.0,558585,-9999.0,558375,-9999.0,
1684327075356,558514,-9999.0,652981,0,2799279,-2799279,0.0,0.0,141,558715,-9999.0,558968,-9999.0,559052,-9999.0,559087,-9999.0,
1684327075365,559038,-9999.0,653122,0,2799279,-2799279,0.0,0.0,142,559258,-9999.0,559103,-9999.0,559214,-9999.0,559321,-9999.0,
1684327075375,559382,-9999.0,653310,0,2799279,-2799279,0.0,0.0,143,559213,-9999.0,559344,-9999.0,559258,-9999.0,559368,-9999.0,
1684327075385,559398,-9999.0,653444,0,2799279,-2799279,0.0,0.0,144,559342,-9999.0,559175,-9999.0,559193,-9999.0,559258,-9999.0,
1684327075396,559253,-9999.0,653558,0,2799279,-2799279,0.0,0.0,145,559246,-9999.0,559165,-9999.0,559353,-9999.0,559489,-9999.0,
1684327075407,559468,-9999.0,653789,0,2799279,-2799279,0.0,0.0,146,559442,-9999.0,559193,-9999.0,559341,-9999.0,559398,-9999.0,
1684327075418,559253,-9999.0,653890,0,2799279,-2799279,0.0,0.0,147,559922,-9999.0,559814,-9999.0,559982,-9999.0,560134,-9999.0,
1684327075427,560037,-9999.0,654142,0,2799279,-2799279,0.0,0.0,148,560073,-9999.0,560208,-9999.0,560302,-9999.0,560196,-9999.0,
1684327075436,560065,-9999.0,654203,0,2799279,-2799279,0.0,0.0,149,560395,-9999.0,560332,-9999.0,560350,-9999.0,560588,-9999.0,
1684327075446,560513,-9999.0,654461,0,2799279,-2799279,0.0,0.0,150,560642,-9999.0,560935,-9999.0,560990,-9999.0,561150,-9999.0,
1684327075455,561355,-9999.0,654497,0,2799279,-2799279,0.0,0.0,151,561790,-9999.0,562225,-9999.0,562594,-9999.0,563191,-9999.0,
1684327075466,563462,-9999.0,654656,0,2799279,-2799279,0.0,0.0,152,563814,-9999.0,564124,-9999.0,564935,-9999.0,565561,-9999.0,
1684327075476,566134,-9999.0,654860,0,2799279,-2799279,0.0,0.0,153,566607,-9999.0,567391,-9999.0,567914,-9999.0,568269,-9999.0,
1684327075486,568070,-9999.0,655139,0,2799279,-2799279,0.0,0.0,154,567385,-9999.0,566711,-9999.0,566608,-9999.0,565513,-9999.0,
1684327075495,564179,-9999.0,655329,0,2799279,-2799279,0.0,0.0,155,563279,-9999.0,562882,-9999.0,562686,-9999.0,562629,-9999.0,
1684327075508,562448,-9999.0,655555,0,2799279,-2799279,0.0,0.0,156,562614,-9999.0,562790,-9999.0,562837,-9999.0,563128,-9999.0,
1684327075516,563143,-9999.0,655691,0,2799279,-2799279,0.0,0.0,157,563125,-9999.0,563262,-9999.0,563418,-9999.0,563370,-9999.0,
1684327075526,563453,-9999.0,655956,0,2799279,-2799279,0.0,0.0,158,563618,-9999.0,563745,-9999.0,563709,-9999.0,563342,-9999.0,
1684327075536,563567,-9999.0,656159,0,2799279,-2799279,0.0,0.0,159,563527,-9999.0,563591,-9999.0,563617,-9999.0,563587,-9999.0,
1684327075548,563475,-9999.0,656353,0,2799279,-2799279,0.0,0.0,160,563633,-9999.0,563756,-9999.0,563935,-9999.0,563959,-9999.0,
1684327075558,564062,-9999.0,656599,0,2799279,-2799279,0.0,0.0,161,564341,-9999.0,564361,-9999.0,564355,-9999.0,564560,-9999.0,
1684327075567,564620,-9999.0,656777,0,2799279,-2799279,0.0,0.0,162,564724,-9999.0,564800,-9999.0,564610,-9999.0,564610,-9999.0,
1684327075576,564586,-9999.0,656897,0,2799279,-2799279,0.0,0.0,163,564851,-9999.0,565235,-9999.0,564968,-9999.0,564902,-9999.0,
1684327075586,565014,-9999.0,657039,0,2799279,-2799279,0.0,0.0,164,564936,-9999.0,564935,-9999.0,565114,-9999.0,565209,-9999.0,
1684327075596,565286,-9999.0,657054,0,2799279,-2799279,0.0,0.0,165,565210,-9999.0,565243,-9999.0,565274,-9999.0,565440,-9999.0,
1684327075608,565452,-9999.0,657172,0,2799279,-2799279,0.0,0.0,166,565283,-9999.0,565493,-9999.0,565611,-9999.0,565537,-9999.0,
1684327075618,565494,-9999.0,657086,0,2799279,-2799279,0.0,0.0,167,565617,-9999.0,565975,-9999.0,565762,-9999.0,565579,-9999.0,
1684327075628,565743,-9999.0,657168,0,2799279,-2799279,0.0,0.0,168,565762,-9999.0,565783,-9999.0,565688,-9999.0,565370,-9999.0,
1684327075637,565927,-9999.0,657095,0,2799279,-2799279,0.0,0.0,169,565978,-9999.0,566213,-9999.0,566336,-9999.0,566384,-9999.0,
1684327075647,566428,-9999.0,657065,0,2799279,-2799279,0.0,0.0,170,566334,-9999.0,566423,-9999.0,566487,-9999.0,566329,-9999.0,
1684327075657,566329,-9999.0,656916,0,2799279,-2799279,0.0,0.0,171,566411,-9999.0,566362,-9999.0,566313,-9999.0,566353,-9999.0,
1684327075667,566451,-9999.0,656908,0,2799279,-2799279,0.0,0.0,172,566378,-9999.0,566167,-9999.0,566201,-9999.0,566222,-9999.0,
1684327075677,566206,-9999.0,656857,0,2799279,-2799279,0.0,0.0,173,566174,-9999.0,566194,-9999.0,565995,-9999.0,565875,-9999.0,
1684327075687,565755,-9999.0,656739,0,2799279,-2799279,0.0,0.0,174,565775,-9999.0,565824,-9999.0,565728,-9999.0,565644,-9999.0,
1684327075697,565675,-9999.0,656859,0,2799279,-2799279,0.0,0.0,175,565755,-9999.0,565887,-9999.0,565603,-9999.0,565514,-9999.0,
1684327075709,565418,-9999.0,656891,0,2799279,-2799279,0.0,0.0,176,565468,-9999.0,565651,-9999.0,565669,-9999.0,565716,-9999.0,
1684327075717,565410,-9999.0,656980,0,2799279,-2799279,0.0,0.0,177,565465,-9999.0,565348,-9999.0,565267,-9999.0,565448,-9999.0,
1684327075728,565316,-9999.0,657103,0,2799279,-2799279,0.0,0.0,178,565175,-9999.0,565035,-9999.0,564804,-9999.0,564578,-9999.0,
1684327075737,564585,-9999.0,657031,0,2799279,-2799279,0.0,0.0,179,564501,-9999.0,564772,-9999.0,564923,-9999.0,564755,-9999.0,
1684327075748,564644,-9999.0,657132,0,2799279,-2799279,0.0,0.0,180,564590,-9999.0,564382,-9999.0,564327,-9999.0,564568,-9999.0,
1684327075757,564346,-9999.0,656986,0,2799279,-2799279,0.0,0.0,181,564497,-9999.0,564554,-9999.0,564649,-9999.0,564736,-9999.0,
1684327075768,564540,-9999.0,656931,0,2799279,-2799279,0.0,0.0,182,564451,-9999.0,564458,-9999.0,564540,-9999.0,564341,-9999.0,
1684327075778,564369,-9999.0,656895,0,2799279,-2799279,0.0,0.0,183,564366,-9999.0,564469,-9999.0,564484,-9999.0,564546,-9999.0,
1684327075788,564677,-9999.0,656813,0,2799279,-2799279,0.0,0.0,184,564757,-9999.0,564739,-9999.0,564847,-9999.0,564805,-9999.0,
1684327075798,564787,-9999.0,656824,0,2799279,-2799279,0.0,0.0,185,564720,-9999.0,564616,-9999.0,564646,-9999.0,564679,-9999.0,
1684327075809,564963,-9999.0,656662,0,2799279,-2799279,0.0,0.0,186,564876,-9999.0,564939,-9999.0,565012,-9999.0,564863,-9999.0,
1684327075818,564942,-9999.0,656575,0,2799279,-2799279,0.0,0.0,187,564998,-9999.0,565012,-9999.0,565075,-9999.0,564824,-9999.0,
1684327075828,564787,-9999.0,656650,0,2799279,-2799279,0.0,0.0,188,564720,-9999.0,564666,-9999.0,564839,-9999.0,565044,-9999.0,
1684327075838,565215,-9999.0,656616,0,2799279,-2799279,0.0,0.0,189,565127,-9999.0,565040,-9999.0,565084,-9999.0,565051,-9999.0,
1684327075848,565202,-9999.0,656521,0,2799279,-2799279,0.0,0.0,190,565125,-9999.0,565075,-9999.0,565074,-9999.0,565109,-9999.0,
1684327075858,565218,-9999.0,656489,0,2799279,-2799279,0.0,0.0,191,565404,-9999.0,565401,-9999.0,565656,-9999.0,565875,-9999.0,
1684327075868,565787,-9999.0,656430,0,2799279,-2799279,0.0,0.0,192,565705,-9999.0,565717,-9999.0,565696,-9999.0,565723,-9999.0,
1684327075878,565679,-9999.0,656328,0,2799279,-2799279,0.0,0.0,193,565783,-9999.0,565867,-9999.0,565790,-9999.0,565779,-9999.0,
1684327075888,565794,-9999.0,656411,0,2799279,-2799279,0.0,0.0,194,566059,-9999.0,566038,-9999.0,565923,-9999.0,565919,-9999.0,
1684327075898,565887,-9999.0,656362,0,2799279,-2799279,0.0,0.0,195,566001,-9999.0,566014,-9999.0,566153,-9999.0,566091,-9999.0,
1684327075910,566109,-9999.0,656377,0,2799279,-2799279,0.0,0.0,196,566171,-9999.0,566065,-9999.0,566206,-9999.0,566161,-9999.0,
1684327075919,566237,-9999.0,656246,0,2799279,-2799279,0.0,0.0,197,566135,-9999.0,566135,-9999.0,566252,-9999.0,566216,-9999.0,
1684327075929,566258,-9999.0,656372,0,2799279,-2799279,0.0,0.0,198,566077,-9999.0,566006,-9999.0,566142,-9999.0,565991,-9999.0,
1684327075939,566046,-9999.0,656265,0,2799279,-2799279,0.0,0.0,199,565986,-9999.0,566117,-9999.0,566134,-9999.0,566234,-9999.0,
1684327075949,566229,-9999.0,656165,0,2799279,-2799279,0.0,0.0,200,566063,-9999.0,566005,-9999.0,566053,-9999.0,566113,-9999.0,
1684327075959,566062,-9999.0,656288,0,2799279,-2799279,0.0,0.0,201,566110,-9999.0,566111,-9999.0,566198,-9999.0,566316,-9999.0,
1684327075969,566285,-9999.0,656402,0,2799279,-2799279,0.0,0.0,202,566202,-9999.0,566171,-9999.0,566237,-9999.0,566429,-9999.0,
1684327075979,566459,-9999.0,656442,0,2799279,-2799279,0.0,0.0,203,566424,-9999.0,566334,-9999.0,566115,-9999.0,566559,-9999.0,
1684327075989,566427,-9999.0,656540,0,2799279,-2799279,0.0,0.0,204,566360,-9999.0,566901,-9999.0,566768,-9999.0,566744,-9999.0,
1684327075999,566853,-9999.0,656506,0,2799279,-2799279,0.0,0.0,205,566746,-9999.0,566822,-9999.0,566795,-9999.0,566877,-9999.0,
1684327076011,566885,-9999.0,656549,0,2799279,-2799279,0.0,0.0,206,566834,-9999.0,566624,-9999.0,566723,-9999.0,566866,-9999.0,
1684327076019,566885,-9999.0,656660,0,2799279,-2799279,0.0,0.0,207,566862,-9999.0,566784,-9999.0,566895,-9999.0,566890,-9999.0,
1684327076029,566770,-9999.0,656739,0,2799279,-2799279,0.0,0.0,208,566859,-9999.0,566954,-9999.0,566841,-9999.0,566787,-9999.0,
1684327076039,566715,-9999.0,656752,0,2799279,-2799279,0.0,0.0,209,566708,-9999.0,566839,-9999.0,566704,-9999.0,566878,-9999.0,
1684327076049,567141,-9999.0,656867,0,2799279,-2799279,0.0,0.0,210,567161,-9999.0,566993,-9999.0,567001,-9999.0,566969,-9999.0,
1684327076059,566898,-9999.0,656965,0,2799279,-2799279,0.0,0.0,211,566779,-9999.0,566937,-9999.0,566959,-9999.0,566891,-9999.0,
1684327076070,566886,-9999.0,657073,0,2799279,-2799279,0.0,0.0,212,566857,-9999.0,566907,-9999.0,566870,-9999.0,566863,-9999.0,
1684327076080,566861,-9999.0,657147,0,2799279,-2799279,0.0,0.0,213,566787,-9999.0,566779,-9999.0,566664,-9999.0,566671,-9999.0,
1684327076090,566799,-9999.0,657274,0,2799279,-2799279,0.0,0.0,214,566600,-9999.0,566597,-9999.0,566658,-9999.0,566600,-9999.0,
1684327076100,566635,-9999.0,657312,0,2799279,-2799279,0.0,0.0,215,566679,-9999.0,566683,-9999.0,566616,-9999.0,566572,-9999.0,
1684327076111,566516,-9999.0,657471,0,2799279,-2799279,0.0,0.0,216,566513,-9999.0,566583,-9999.0,566658,-9999.0,566500,-9999.0,
1684327076121,566345,-9999.0,657439,0,2799279,-2799279,0.0,0.0,217,566397,-9999.0,566449,-9999.0,566555,-9999.0,566401,-9999.0,
1684327076131,566266,-9999.0,657344,0,2799279,-2799279,0.0,0.0,218,566009,-9999.0,566197,-9999.0,566093,-9999.0,566197,-9999.0,
1684327076141,566624,-9999.0,657581,0,2799279,-2799279,0.0,0.0,219,567122,-9999.0,567675,-9999.0,568085,-9999.0,568582,-9999.0,
1684327076152,568798,-9999.0,657551,0,2799279,-2799279,0.0,0.0,220,569256,-9999.0,569754,-9999.0,570464,-9999.0,571179,-9999.0,
1684327076162,571567,-9999.0,657695,0,2799279,-2799279,0.0,0.0,221,571887,-9999.0,572445,-9999.0,572664,-9999.0,572364,-9999.0,
1684327076171,571733,-9999.0,657793,0,2799279,-2799279,0.0,0.0,222,570879,-9999.0,570196,-9999.0,568900,-9999.0,567329,-9999.0,
1684327076182,566345,-9999.0,658038,0,2799279,-2799279,0.0,0.0,223,565526,-9999.0,565543,-9999.0,565561,-9999.0,565307,-9999.0,
1684327076191,565243,-9999.0,658112,0,2799279,-2799279,0.0,0.0,224,565620,-9999.0,565504,-9999.0,565393,-9999.0,565353,-9999.0,
1684327076203,565619,-9999.0,658411,0,2799279,-2799279,0.0,0.0,225,565655,-9999.0,565481,-9999.0,565468,-9999.0,565425,-9999.0,
1684327076218,565593,-9999.0,658569,0,2799279,-2799279,0.0,0.0,226,565398,-9999.0,565484,-9999.0,565497,-9999.0,565617,-9999.0,
1684327076232,565287,-9999.0,658808,0,2799279,-2799279,0.0,0.0,227,565222,-9999.0,565460,-9999.0,565498,-9999.0,565460,-9999.0,
1684327076249,565417,-9999.0,659064,0,2799279,-2799279,0.0,0.0,228,565189,-9999.0,565068,-9999.0,565078,-9999.0,565143,-9999.0,
1684327076258,565262,-9999.0,659285,0,2799279,-2799279,0.0,0.0,229,565249,-9999.0,565189,-9999.0,565143,-9999.0,565456,-9999.0,
1684327076264,565731,-9999.0,659595,0,2799279,-2799279,0.0,0.0,230,565768,-9999.0,565896,-9999.0,565890,-9999.0,565822,-9999.0,
1684327076272,565856,-9999.0,659900,0,2799279,-2799279,0.0,0.0,231,565943,-9999.0,566225,-9999.0,566280,-9999.0,566317,-9999.0,
1684327076281,566325,-9999.0,660096,0,2799279,-2799279,0.0,0.0,232,566334,-9999.0,566427,-9999.0,566551,-9999.0,566485,-9999.0,
1684327076306,566561,-9999.0,660201,0,2799279,-2799279,0.0,0.0,233,566548,-9999.0,566627,-9999.0,566849,-9999.0,567042,-9999.0,
1684327076322,567112,-9999.0,660446,0,2799279,-2799279,0.0,0.0,234,567029,-9999.0,566913,-9999.0,566899,-9999.0,567100,-9999.0,
1684327076328,567200,-9999.0,660584,0,2799279,-2799279,0.0,0.0,235,567090,-9999.0,567152,-9999.0,567380,-9999.0,567395,-9999.0,
1684327076337,567312,-9999.0,660768,0,2799279,-2799279,0.0,0.0,236,567134,-9999.0,567395,-9999.0,567502,-9999.0,567539,-9999.0,
1684327076345,567560,-9999.0,660898,0,2799279,-2799279,0.0,0.0,237,567769,-9999.0,567992,-9999.0,567847,-9999.0,568159,-9999.0,
1684327076353,568088,-9999.0,661043,0,2799279,-2799279,0.0,0.0,238,568196,-9999.0,568192,-9999.0,568201,-9999.0,568265,-9999.0,
1684327076358,568402,-9999.0,661286,0,2799279,-2799279,0.0,0.0,239,568626,-9999.0,568709,-9999.0,568995,-9999.0,568921,-9999.0,
1684327076367,569032,-9999.0,661339,0,2799279,-2799279,0.0,0.0,240,569028,-9999.0,569202,-9999.0,569172,-9999.0,569292,-9999.0,
1684327076375,569446,-9999.0,661386,0,2799279,-2799279,0.0,0.0,241,569385,-9999.0,569330,-9999.0,569326,-9999.0,569573,-9999.0,569792,-9999.0,569677,-9999.0,569753,-9999.0,570072,-9999.0,569980,-9999.0,
1684327076384,569861,-9999.0,661337,0,2799279,-2799279,0.0,0.0,242,569610,-9999.0,569712,-9999.0,569944,-9999.0,569949,-9999.0,
1684327076391,569925,-9999.0,661212,0,2799279,-2799279,0.0,0.0,243,569868,-9999.0,569869,-9999.0,569642,-9999.0,569312,-9999.0,
1684327076398,569541,-9999.0,661094,0,2799279,-2799279,0.0,0.0,244,569442,-9999.0,569235,-9999.0,569395,-9999.0,569240,-9999.0,
1684327076406,568896,-9999.0,660979,0,2799279,-2799279,0.0,0.0,245,569093,-9999.0,568733,-9999.0,568722,-9999.0,568860,-9999.0,
1684327076417,568782,-9999.0,660830,0,2799279,-2799279,0.0,0.0,246,568631,-9999.0,568534,-9999.0,568611,-9999.0,568583,-9999.0,
1684327076425,568593,-9999.0,660808,0,2799279,-2799279,0.0,0.0,247,568428,-9999.0,568145,-9999.0,568175,-9999.0,568390,-9999.0,
1684327076433,568287,-9999.0,660664,0,2799279,-2799279,0.0,0.0,248,568363,-9999.0,568415,-9999.0,568213,-9999.0,568070,-9999.0,
1684327076443,568070,-9999.0,660489,0,2799279,-2799279,0.0,0.0,249,568172,-9999.0,568094,-9999.0,568097,-9999.0,568117,-9999.0,
1684327076452,568232,-9999.0,660377,0,2799279,-2799279,0.0,0.0,250,568296,-9999.0,568332,-9999.0,568257,-9999.0,568264,-9999.0,
1684327076463,568318,-9999.0,660307,0,2799279,-2799279,0.0,0.0,251,568196,-9999.0,568199,-9999.0,568013,-9999.0,568062,-9999.0,
1684327076473,568217,-9999.0,660258,0,2799279,-2799279,0.0,0.0,252,568172,-9999.0,568334,-9999.0,568591,-9999.0,568553,-9999.0,
1684327076482,568394,-9999.0,660188,0,2799279,-2799279,0.0,0.0,253,568253,-9999.0,568098,-9999.0,568064,-9999.0,568424,-9999.0,
1684327076493,568406,-9999.0,660292,0,2799279,-2799279,0.0,0.0,254,568470,-9999.0,568619,-9999.0,568593,-9999.0,568585,-9999.0,
1684327076502,568531,-9999.0,660309,0,2799279,-2799279,0.0,0.0,255,568581,-9999.0,568663,-9999.0,568611,-9999.0,568703,-9999.0,
1684327076515,568691,-9999.0,660322,0,2799279,-2799279,0.0,0.0,0,568613,-9999.0,568770,-9999.0,568862,-9999.0,568714,-9999.0,
1684327076522,568877,-9999.0,660369,0,2799279,-2799279,0.0,0.0,1,568670,-9999.0,568645,-9999.0,568571,-9999.0,568460,-9999.0,
1684327076537,568866,-9999.0,660423,0,2799279,-2799279,0.0,0.0,2,569073,-9999.0,568906,-9999.0,568873,-9999.0,568878,-9999.0,
1684327076543,568882,-9999.0,660584,0,2799279,-2799279,0.0,0.0,3,568926,-9999.0,568872,-9999.0,569028,-9999.0,568941,-9999.0,
1684327076553,568761,-9999.0,660599,0,2799279,-2799279,0.0,0.0,4,568981,-9999.0,569061,-9999.0,569033,-9999.0,568881,-9999.0,
1684327076563,568912,-9999.0,660988,0,2799279,-2799279,0.0,0.0,5,568892,-9999.0,568824,-9999.0,568932,-9999.0,569099,-9999.0,
1684327076573,569079,-9999.0,661229,0,2799279,-2799279,0.0,0.0,6,569184,-9999.0,569203,-9999.0,569246,-9999.0,569268,-9999.0,
1684327076583,569272,-9999.0,661265,0,2799279,-2799279,0.0,0.0,7,569294,-9999.0,569244,-9999.0,569207,-9999.0,569215,-9999.0,
1684327076594,569328,-9999.0,661508,0,2799279,-2799279,0.0,0.0,8,569327,-9999.0,569395,-9999.0,569421,-9999.0,569411,-9999.0,
1684327076604,569299,-9999.0,661896,0,2799279,-2799279,0.0,0.0,9,569200,-9999.0,569144,-9999.0,569021,-9999.0,569111,-9999.0,
1684327076616,569120,-9999.0,661773,0,2799279,-2799279,0.0,0.0,10,568852,-9999.0,568833,-9999.0,569398,-9999.0,569263,-9999.0,
1684327076625,569131,-9999.0,661820,0,2799279,-2799279,0.0,0.0,11,569087,-9999.0,569290,-9999.0,569262,-9999.0,569310,-9999.0,
1684327076634,569358,-9999.0,661881,0,2799279,-2799279,0.0,0.0,12,569303,-9999.0,569156,-9999.0,569354,-9999.0,569344,-9999.0,
1684327076644,569267,-9999.0,661979,0,2799279,-2799279,0.0,0.0,13,569235,-9999.0,569368,-9999.0,569105,-9999.0,569271,-9999.0,
1684327076655,569439,-9999.0,661945,0,2799279,-2799279,0.0,0.0,14,569376,-9999.0,569350,-9999.0,569339,-9999.0,569306,-9999.0,
1684327076663,569340,-9999.0,661992,0,2799279,-2799279,0.0,0.0,15,569362,-9999.0,569355,-9999.0,569422,-9999.0,569378,-9999.0,
1684327076674,569370,-9999.0,662050,0,2799279,-2799279,0.0,0.0,16,569414,-9999.0,569283,-9999.0,569242,-9999.0,569366,-9999.0,
1684327076684,569389,-9999.0,662007,0,2799279,-2799279,0.0,0.0,17,569356,-9999.0,569168,-9999.0,569133,-9999.0,569382,-9999.0,
1684327076694,569446,-9999.0,662156,0,2799279,-2799279,0.0,0.0,18,569625,-9999.0,569884,-9999.0,569598,-9999.0,569482,-9999.0,
1684327076706,569447,-9999.0,662180,0,2799279,-2799279,0.0,0.0,19,569515,-9999.0,569685,-9999.0,569650,-9999.0,569654,-9999.0,
1684327076717,569654,-9999.0,662207,0,2799279,-2799279,0.0,0.0,20,569430,-9999.0,569618,-9999.0,569694,-9999.0,569754,-9999.0,
1684327076724,569762,-9999.0,662292,0,2799279,-2799279,0.0,0.0,21,569738,-9999.0,569706,-9999.0,569757,-9999.0,569728,-9999.0,
1684327076734,569680,-9999.0,662385,0,2799279,-2799279,0.0,0.0,22,569725,-9999.0,569657,-9999.0,569690,-9999.0,569824,-9999.0,
1684327076744,569840,-9999.0,662395,0,2799279,-2799279,0.0,0.0,23,569868,-9999.0,569971,-9999.0,569985,-9999.0,569855,-9999.0,
1684327076754,569836,-9999.0,662451,0,2799279,-2799279,0.0,0.0,24,570150,-9999.0,569995,-9999.0,570000,-9999.0,570150,-9999.0,
1684327076764,570457,-9999.0,662463,0,2799279,-2799279,0.0,0.0,25,570355,-9999.0,570341,-9999.0,570478,-9999.0,570139,-9999.0,
1684327076774,570354,-9999.0,662523,0,2799279,-2799279,0.0,0.0,26,570222,-9999.0,570159,-9999.0,570259,-9999.0,570162,-9999.0,
1684327076784,570039,-9999.0,662542,0,2799279,-2799279,0.0,0.0,27,570040,-9999.0,570001,-9999.0,570051,-9999.0,570176,-9999.0,
1684327076795,570058,-9999.0,662553,0,2799279,-2799279,0.0,0.0,28,570038,-9999.0,570009,-9999.0,569980,-9999.0,570036,-9999.0,
1684327076804,569999,-9999.0,662732,0,2799279,-2799279,0.0,0.0,29,569852,-9999.0,570011,-9999.0,570060,-9999.0,570092,-9999.0,
1684327076816,570009,-9999.0,662702,0,2799279,-2799279,0.0,0.0,30,570110,-9999.0,570218,-9999.0,570230,-9999.0,570119,-9999.0,
1684327076826,570110,-9999.0,662721,0,2799279,-2799279,0.0,0.0,31,569951,-9999.0,570083,-9999.0,569991,-9999.0,570405,-9999.0,
1684327076835,570351,-9999.0,662840,0,2799279,-2799279,0.0,0.0,32,570167,-9999.0,570609,-9999.0,570948,-9999.0,571175,-9999.0,
1684327076848,571551,-9999.0,662943,0,2799279,-2799279,0.0,0.0,33,572141,-9999.0,572926,-9999.0,573176,-9999.0,573702,-9999.0,
1684327076858,574480,-9999.0,663014,0,2799279,-2799279,0.0,0.0,34,575330,-9999.0,575835,-9999.0,576327,-9999.0,576898,-9999.0,
1684327076864,577333,-9999.0,663208,0,2799279,-2799279,0.0,0.0,35,577242,-9999.0,576863,-9999.0,576281,-9999.0,575609,-9999.0,
1684327076876,574809,-9999.0,663306,0,2799279,-2799279,0.0,0.0,36,573598,-9999.0,572216,-9999.0,571293,-9999.0,570715,-9999.0,
1684327076885,570561,-9999.0,663445,0,2799279,-2799279,0.0,0.0,37,570417,-9999.0,570437,-9999.0,570564,-9999.0,570700,-9999.0,
1684327076895,570780,-9999.0,663581,0,2799279,-2799279,0.0,0.0,38,570784,-9999.0,570871,-9999.0,570773,-9999.0,571070,-9999.0,
1684327076905,570980,-9999.0,663750,0,2799279,-2799279,0.0,0.0,39,570803,-9999.0,570936,-9999.0,571381,-9999.0,571118,-9999.0,
1684327076916,571044,-9999.0,663830,0,2799279,-2799279,0.0,0.0,40,571047,-9999.0,570944,-9999.0,570872,-9999.0,570890,-9999.0,
1684327076925,571031,-9999.0,663833,0,2799279,-2799279,0.0,0.0,41,571114,-9999.0,571270,-9999.0,571030,-9999.0,571194,-9999.0,
1684327076936,571388,-9999.0,664076,0,2799279,-2799279,0.0,0.0,42,571640,-9999.0,571496,-9999.0,571510,-9999.0,571592,-9999.0,
1684327076947,571600,-9999.0,664191,0,2799279,-2799279,0.0,0.0,43,571549,-9999.0,571492,-9999.0,571548,-9999.0,571688,-9999.0,
1684327076957,571720,-9999.0,664359,0,2799279,-2799279,0.0,0.0,44,571553,-9999.0,571902,-9999.0,571982,-9999.0,572017,-9999.0,
1684327076971,571827,-9999.0,664518,0,2799279,-2799279,0.0,0.0,45,571779,-9999.0,571854,-9999.0,571967,-9999.0,572005,-9999.0,
1684327076976,572006,-9999.0,664577,0,2799279,-2799279,0.0,0.0,46,571935,-9999.0,572038,-9999.0,572162,-9999.0,572269,-9999.0,
1684327076985,572317,-9999.0,664683,0,2799279,-2799279,0.0,0.0,47,572321,-9999.0,572535,-9999.0,572400,-9999.0,572387,-9999.0,
1684327076996,572268,-9999.0,664791,0,2799279,-2799279,0.0,0.0,48,572369,-9999.0,572547,-9999.0,572910,-9999.0,573026,-9999.0,
1684327077005,572603,-9999.0,664937,0,2799279,-2799279,0.0,0.0,49,572983,-9999.0,572851,-9999.0,572814,-9999.0,572869,-9999.0,
1684327077017,572881,-9999.0,665079,0,2799279,-2799279,0.0,0.0,50,572954,-9999.0,573089,-9999.0,573201,-9999.0,573347,-9999.0,
1684327077026,573260,-9999.0,665045,0,2799279,-2799279,0.0,0.0,51,573283,-9999.0,573272,-9999.0,573463,-9999.0,573763,-9999.0,
1684327077036,573874,-9999.0,665238,0,2799279,-2799279,0.0,0.0,52,573850,-9999.0,573733,-9999.0,573841,-9999.0,574068,-9999.0,
1684327077046,573984,-9999.0,665244,0,2799279,-2799279,0.0,0.0,53,573877,-9999.0,573896,-9999.0,574107,-9999.0,574228,-9999.0,
1684327077056,574427,-9999.0,665364,0,2799279,-2799279,0.0,0.0,54,574498,-9999.0,574609,-9999.0,574634,-9999.0,574486,-9999.0,
1684327077066,574300,-9999.0,665413,0,2799279,-2799279,0.0,0.0,55,574531,-9999.0,574577,-9999.0,574650,-9999.0,574723,-9999.0,
1684327077076,574824,-9999.0,665356,0,2799279,-2799279,0.0,0.0,56,574729,-9999.0,574408,-9999.0,574358,-9999.0,574366,-9999.0,
1684327077086,574412,-9999.0,665328,0,2799279,-2799279,0.0,0.0,57,574402,-9999.0,574276,-9999.0,574287,-9999.0,574203,-9999.0,
1684327077096,573905,-9999.0,665221,0,2799279,-2799279,0.0,0.0,58,573705,-9999.0,573652,-9999.0,573403,-9999.0,573058,-9999.0,
1684327077107,573121,-9999.0,665117,0,2799279,-2799279,0.0,0.0,59,573169,-9999.0,573372,-9999.0,573194,-9999.0,573120,-9999.0,
1684327077117,573064,-9999.0,665089,0,2799279,-2799279,0.0,0.0,60,573038,-9999.0,573022,-9999.0,572788,-9999.0,572581,-9999.0,
1684327077126,572473,-9999.0,665123,0,2799279,-2799279,0.0,0.0,61,572472,-9999.0,572548,-9999.0,572547,-9999.0,572690,-9999.0,
1684327077136,572799,-9999.0,665123,0,2799279,-2799279,0.0,0.0,62,572710,-9999.0,572511,-9999.0,572775,-9999.0,572479,-9999.0,
1684327077147,572505,-9999.0,665242,0,2799279,-2799279,0.0,0.0,63,572667,-9999.0,572668,-9999.0,573002,-9999.0,572771,-9999.0,
1684327077158,572827,-9999.0,665396,0,2799279,-2799279,0.0,0.0,64,572632,-9999.0,572642,-9999.0,572736,-9999.0,572557,-9999.0,
1684327077168,572431,-9999.0,665549,0,2799279,-2799279,0.0,0.0,65,572921,-9999.0,572873,-9999.0,572926,-9999.0,572898,-9999.0,
1684327077179,572911,-9999.0,665710,0,2799279,-2799279,0.0,0.0,66,572771,-9999.0,572720,-9999.0,572664,-9999.0,572612,-9999.0,
1684327077187,572589,-9999.0,665826,0,2799279,-2799279,0.0,0.0,67,572759,-9999.0,572723,-9999.0,572822,-9999.0,572671,-9999.0,
1684327077198,572696,-9999.0,665980,0,2799279,-2799279,0.0,0.0,68,572579,-9999.0,572443,-9999.0,572491,-9999.0,572500,-9999.0,
1684327077207,572457,-9999.0,666019,0,2799279,-2799279,0.0,0.0,69,572437,-9999.0,572471,-9999.0,572535,-9999.0,572524,-9999.0,
1684327077218,572340,-9999.0,666027,0,2799279,-2799279,0.0,0.0,70,572425,-9999.0,572611,-9999.0,572646,-9999.0,572835,-9999.0,
1684327077227,572849,-9999.0,665946,0,2799279,-2799279,0.0,0.0,71,573042,-9999.0,573046,-9999.0,572889,-9999.0,573036,-9999.0,
1684327077237,573089,-9999.0,665974,0,2799279,-2799279,0.0,0.0,72,573097,-9999.0,572983,-9999.0,573026,-9999.0,573222,-9999.0,
1684327077247,573153,-9999.0,665902,0,2799279,-2799279,0.0,0.0,73,573232,-9999.0,573243,-9999.0,573359,-9999.0,573558,-9999.0,
1684327077257,573194,-9999.0,665786,0,2799279,-2799279,0.0,0.0,74,573184,-9999.0,573085,-9999.0,573490,-9999.0,573463,-9999.0,
1684327077268,573554,-9999.0,665792,0,2799279,-2799279,0.0,0.0,75,573543,-9999.0,573571,-9999.0,573647,-9999.0,573753,-9999.0,
1684327077277,573623,-9999.0,665866,0,2799279,-2799279,0.0,0.0,76,573722,-9999.0,573697,-9999.0,573579,-9999.0,573690,-9999.0,
1684327077287,573777,-9999.0,665910,0,2799279,-2799279,0.0,0.0,77,573778,-9999.0,573944,-9999.0,573648,-9999.0,573673,-9999.0,
1684327077298,573855,-9999.0,665826,0,2799279,-2799279,0.0,0.0,78,573739,-9999.0,573384,-9999.0,573516,-9999.0,573491,-9999.0,
1684327077308,573682,-9999.0,665824,0,2799279,-2799279,0.0,0.0,79,573806,-9999.0,573640,-9999.0,573527,-9999.0,573757,-9999.0,
1684327077319,573896,-9999.0,665885,0,2799279,-2799279,0.0,0.0,80,573567,-9999.0,573711,-9999.0,573690,-9999.0,573670,-9999.0,
1684327077327,573920,-9999.0,665799,0,2799279,-2799279,0.0,0.0,81,573866,-9999.0,573809,-9999.0,573762,-9999.0,573841,-9999.0,
1684327077338,573982,-9999.0,665919,0,2799279,-2799279,0.0,0.0,82,574038,-9999.0,574008,-9999.0,573973,-9999.0,574103,-9999.0,
1684327077348,574156,-9999.0,665936,0,2799279,-2799279,0.0,0.0,83,574144,-9999.0,574339,-9999.0,573921,-9999.0,574111,-9999.0,
1684327077358,574211,-9999.0,665898,0,2799279,-2799279,0.0,0.0,84,574161,-9999.0,574010,-9999.0,574033,-9999.0,574012,-9999.0,
1684327077368,573928,-9999.0,665968,0,2799279,-2799279,0.0,0.0,85,574069,-9999.0,574013,-9999.0,573934,-9999.0,573893,-9999.0,
1684327077378,573781,-9999.0,665843,0,2799279,-2799279,0.0,0.0,86,573747,-9999.0,573838,-9999.0,574099,-9999.0,573790,-9999.0,
1684327077388,573622,-9999.0,665710,0,2799279,-2799279,0.0,0.0,87,574066,-9999.0,574193,-9999.0,574127,-9999.0,574183,-9999.0,
1684327077398,574164,-9999.0,665690,0,2799279,-2799279,0.0,0.0,88,573940,-9999.0,573960,-9999.0,574115,-9999.0,574004,-9999.0,
1684327077408,573981,-9999.0,665671,0,2799279,-2799279,0.0,0.0,89,574097,-9999.0,574025,-9999.0,574066,-9999.0,573849,-9999.0,
1684327077420,573946,-9999.0,665574,0,2799279,-2799279,0.0,0.0,90,573703,-9999.0,573699,-9999.0,573475,-9999.0,573819,-9999.0,
1684327077429,574156,-9999.0,665652,0,2799279,-2799279,0.0,0.0,91,573875,-9999.0,573810,-9999.0,573709,-9999.0,573670,-9999.0,
1684327077439,573717,-9999.0,665686,0,2799279,-2799279,0.0,0.0,92,572931,-9999.0,573176,-9999.0,573952,-9999.0,573693,-9999.0,
1684327077450,573444,-9999.0,665752,0,2799279,-2799279,0.0,0.0,93,573594,-9999.0,573787,-9999.0,573778,-9999.0,573707,-9999.0,
1684327077460,573810,-9999.0,665908,0,2799279,-2799279,0.0,0.0,94,573664,-9999.0,573428,-9999.0,573825,-9999.0,573799,-9999.0,
1684327077474,573586,-9999.0,666012,0,2799279,-2799279,0.0,0.0,95,573904,-9999.0,573830,-9999.0,573815,-9999.0,573783,-9999.0,
1684327077486,573810,-9999.0,666102,0,2799279,-2799279,0.0,0.0,96,573929,-9999.0,573881,-9999.0,573698,-9999.0,573857,-9999.0,
1684327077494,573773,-9999.0,666130,0,2799279,-2799279,0.0,0.0,97,573912,-9999.0,574460,-9999.0,574155,-9999.0,574219,-9999.0,
1684327077501,574314,-9999.0,666228,0,2799279,-2799279,0.0,0.0,98,574199,-9999.0,574446,-9999.0,574565,-9999.0,574188,-9999.0,
1684327077509,574160,-9999.0,666330,0,2799279,-2799279,0.0,0.0,99,574116,-9999.0,574372,-9999.0,574107,-9999.0,574229,-9999.0,
1684327077520,573992,-9999.0,666450,0,2799279,-2799279,0.0,0.0,100,574085,-9999.0,574183,-9999.0,574143,-9999.0,574602,-9999.0,
1684327077530,573516,-9999.0,666548,0,2799279,-2799279,0.0,0.0,101,573787,-9999.0,573905,-9999.0,573898,-9999.0,574320,-9999.0,
1684327077539,574257,-9999.0,666668,0,2799279,-2799279,0.0,0.0,102,574119,-9999.0,574175,-9999.0,574314,-9999.0,574269,-9999.0,
1684327077549,574108,-9999.0,666678,0,2799279,-2799279,0.0,0.0,103,574049,-9999.0,574374,-9999.0,574308,-9999.0,574287,-9999.0,
1684327077559,574256,-9999.0,666857,0,2799279,-2799279,0.0,0.0,104,573990,-9999.0,574402,-9999.0,574060,-9999.0,574155,-9999.0,
1684327077569,574105,-9999.0,667066,0,2799279,-2799279,0.0,0.0,105,574233,-9999.0,574272,-9999.0,574065,-9999.0,574456,-9999.0,
1684327077581,574930,-9999.0,667411,0,2799279,-2799279,0.0,0.0,106,575612,-9999.0,575664,-9999.0,576190,-9999.0,576757,-9999.0,
1684327077589,577008,-9999.0,667744,0,2799279,-2799279,0.0,0.0,107,577214,-9999.0,578318,-9999.0,578599,-9999.0,578923,-9999.0,
1684327077600,579594,-9999.0,667998,0,2799279,-2799279,0.0,0.0,108,580113,-9999.0,580479,-9999.0,580398,-9999.0,579610,-9999.0,
1684327077609,579206,-9999.0,668025,0,2799279,-2799279,0.0,0.0,109,578374,-9999.0,577262,-9999.0,575923,-9999.0,574777,-9999.0,
1684327077621,573893,-9999.0,667983,0,2799279,-2799279,0.0,0.0,110,573392,-9999.0,573486,-9999.0,573594,-9999.0,573833,-9999.0,
1684327077630,573900,-9999.0,667919,0,2799279,-2799279,0.0,0.0,111,573527,-9999.0,573431,-9999.0,573345,-9999.0,573488,-9999.0,
1684327077640,573619,-9999.0,668000,0,2799279,-2799279,0.0,0.0,112,573697,-9999.0,573798,-9999.0,573970,-9999.0,573918,-9999.0,
1684327077649,573909,-9999.0,668069,0,2799279,-2799279,0.0,0.0,113,573867,-9999.0,574014,-9999.0,573950,-9999.0,574046,-9999.0,
1684327077660,573754,-9999.0,667979,0,2799279,-2799279,0.0,0.0,114,573898,-9999.0,574128,-9999.0,574446,-9999.0,574141,-9999.0,
1684327077670,574470,-9999.0,667991,0,2799279,-2799279,0.0,0.0,115,574582,-9999.0,574646,-9999.0,574077,-9999.0,574885,-9999.0,
1684327077680,574874,-9999.0,668050,0,2799279,-2799279,0.0,0.0,116,574629,-9999.0,574627,-9999.0,574782,-9999.0,574944,-9999.0,
1684327077690,575019,-9999.0,668249,0,2799279,-2799279,0.0,0.0,117,575252,-9999.0,575348,-9999.0,575614,-9999.0,575328,-9999.0,
1684327077700,575451,-9999.0,668327,0,2799279,-2799279,0.0,0.0,118,575485,-9999.0,575613,-9999.0,575752,-9999.0,575475,-9999.0,
1684327077713,575032,-9999.0,668505,0,2799279,-2799279,0.0,0.0,119,575395,-9999.0,575521,-9999.0,575129,-9999.0,575127,-9999.0,
1684327077721,575223,-9999.0,668497,0,2799279,-2799279,0.0,0.0,120,575238,-9999.0,575628,-9999.0,575430,-9999.0,575336,-9999.0,
1684327077730,575358,-9999.0,668546,0,2799279,-2799279,0.0,0.0,121,575294,-9999.0,575389,-9999.0,575459,-9999.0,575968,-9999.0,
1684327077740,575841,-9999.0,668604,0,2799279,-2799279,0.0,0.0,122,575915,-9999.0,575996,-9999.0,575943,-9999.0,575992,-9999.0,
1684327077750,575960,-9999.0,668649,0,2799279,-2799279,0.0,0.0,123,575873,-9999.0,575988,-9999.0,576258,-9999.0,576310,-9999.0,
1684327077761,576334,-9999.0,668727,0,2799279,-2799279,0.0,0.0,124,576226,-9999.0,576339,-9999.0,576462,-9999.0,576516,-9999.0,
1684327077770,576669,-9999.0,668674,0,2799279,-2799279,0.0,0.0,125,576764,-9999.0,576829,-9999.0,576976,-9999.0,577177,-9999.0,
1684327077781,577170,-9999.0,668567,0,2799279,-2799279,0.0,0.0,126,576935,-9999.0,576924,-9999.0,577090,-9999.0,577279,-9999.0,
1684327077791,577257,-9999.0,668666,0,2799279,-2799279,0.0,0.0,127,577438,-9999.0,577341,-9999.0,577613,-9999.0,577754,-9999.0,
1684327077801,577728,-9999.0,668608,0,2799279,-2799279,0.0,0.0,128,577615,-9999.0,577838,-9999.0,578026,-9999.0,578047,-9999.0,
1684327077811,578110,-9999.0,668594,0,2799279,-2799279,0.0,0.0,129,578444,-9999.0,578240,-9999.0,578321,-9999.0,578930,-9999.0,
1684327077822,578954,-9999.0,668640,0,2799279,-2799279,0.0,0.0,130,578881,-9999.0,578427,-9999.0,578696,-9999.0,578596,-9999.0,
1684327077831,578170,-9999.0,668668,0,2799279,-2799279,0.0,0.0,131,577969,-9999.0,578368,-9999.0,578009,-9999.0,577914,-9999.0,
1684327077841,578185,-9999.0,668480,0,2799279,-2799279,0.0,0.0,132,578050,-9999.0,577862,-9999.0,577822,-9999.0,577894,-9999.0,
1684327077851,577950,-9999.0,668674,0,2799279,-2799279,0.0,0.0,133,577912,-9999.0,578051,-9999.0,577641,-9999.0,577294,-9999.0,
1684327077861,577424,-9999.0,668759,0,2799279,-2799279,0.0,0.0,134,577481,-9999.0,577328,-9999.0,577353,-9999.0,577437,-9999.0,
1684327077871,577472,-9999.0,668611,0,2799279,-2799279,0.0,0.0,135,577194,-9999.0,577528,-9999.0,577404,-9999.0,577295,-9999.0,
1684327077881,577418,-9999.0,668495,0,2799279,-2799279,0.0,0.0,136,577295,-9999.0,577223,-9999.0,577344,-9999.0,577253,-9999.0,
1684327077891,576942,-9999.0,668256,0,2799279,-2799279,0.0,0.0,137,577031,-9999.0,577254,-9999.0,577110,-9999.0,576991,-9999.0,
1684327077901,577094,-9999.0,667993,0,2799279,-2799279,0.0,0.0,138,577255,-9999.0,577591,-9999.0,577267,-9999.0,576809,-9999.0,
1684327077911,576652,-9999.0,667968,0,2799279,-2799279,0.0,0.0,139,576821,-9999.0,577198,-9999.0,577039,-9999.0,577194,-9999.0,
1684327077923,577265,-9999.0,668088,0,2799279,-2799279,0.0,0.0,140,577097,-9999.0,577063,-9999.0,577243,-9999.0,577508,-9999.0,
1684327077932,577617,-9999.0,668365,0,2799279,-2799279,0.0,0.0,141,577238,-9999.0,576915,-9999.0,576741,-9999.0,576538,-9999.0,
1684327077942,576719,-9999.0,668823,0,2799279,-2799279,0.0,0.0,142,576679,-9999.0,576944,-9999.0,577038,-9999.0,577031,-9999.0,
1684327077952,576954,-9999.0,669875,0,2799279,-2799279,0.0,0.0,143,576723,-9999.0,576819,-9999.0,576773,-9999.0,576732,-9999.0,
1684327077962,576588,-9999.0,671157,0,2799279,-2799279,0.0,0.0,144,576719,-9999.0,576500,-9999.0,576601,-9999.0,576241,-9999.0,
1684327077972,576285,-9999.0,672998,0,2799279,-2799279,0.0,0.0,145,576204,-9999.0,576391,-9999.0,576100,-9999.0,575782,-9999.0,
1684327077982,576178,-9999.0,675777,0,2799279,-2799279,0.0,0.0,146,575983,-9999.0,575682,-9999.0,575736,-9999.0,575633,-9999.0,
1684327077992,575267,-9999.0,680320,0,2799279,-2799279,0.0,0.0,147,575375,-9999.0,576011,-9999.0,575511,-9999.0,575612,-9999.0,
1684327078002,575600,-9999.0,686878,0,2799279,-2799279,0.0,0.0,148,575761,-9999.0,575860,-9999.0,576034,-9999.0,576146,-9999.0,
1684327078012,576604,-9999.0,696601,0,2799279,-2799279,0.0,0.0,149,576422,-9999.0,576498,-9999.0,576411,-9999.0,576633,-9999.0,
1684327078023,576902,-9999.0,709607,0,2799279,-2799279,0.0,0.0,150,577086,-9999.0,577207,-9999.0,577457,-9999.0,577611,-9999.0,
1684327078032,577806,-9999.0,733416,0,2799279,-2799279,0.0,0.0,151,577709,-9999.0,577854,-9999.0,577684,-9999.0,577625,-9999.0,
1684327078042,577683,-9999.0,768895,0,2799279,-2799279,0.0,0.0,152,577651,-9999.0,577685,-9999.0,577696,-9999.0,577640,-9999.0,
1684327078052,577605,-9999.0,796377,0,2799279,-2799279,0.0,0.0,153,577575,-9999.0,577440,-9999.0,577242,-9999.0,577237,-9999.0,
1684327078062,577107,-9999.0,819223,0,2799279,-2799279,0.0,0.0,154,577043,-9999.0,577002,-9999.0,576816,-9999.0,576955,-9999.0,
1684327078072,577000,-9999.0,837456,0,2799279,-2799279,0.0,0.0,155,576849,-9999.0,576458,-9999.0,576346,-9999.0,576557,-9999.0,
1684327078083,576580,-9999.0,853273,0,2799279,-2799279,0.0,0.0,156,576713,-9999.0,576809,-9999.0,576654,-9999.0,576494,-9999.0,
1684327078092,576367,-9999.0,868231,0,2799279,-2799279,0.0,0.0,157,576650,-9999.0,576879,-9999.0,576952,-9999.0,576970,-9999.0,
1684327078103,576948,-9999.0,878453,0,2799279,-2799279,0.0,0.0,158,576780,-9999.0,576709,-9999.0,576772,-9999.0,576910,-9999.0,
1684327078113,576886,-9999.0,884775,0,2799279,-2799279,0.0,0.0,159,576935,-9999.0,576823,-9999.0,576847,-9999.0,577027,-9999.0,576765,-9999.0,576667,-9999.0,576617,-9999.0,576566,-9999.0,576646,-9999.0,
1684327078124,576646,-9999.0,893895,0,2799279,-2799279,0.0,0.0,160,576902,-9999.0,577056,-9999.0,577086,-9999.0,577058,-9999.0,
1684327078133,577123,-9999.0,889115,0,2799279,-2799279,0.0,0.0,161,577205,-9999.0,577174,-9999.0,577564,-9999.0,577553,-9999.0,
1684327078143,577396,-9999.0,884783,0,2799279,-2799279,0.0,0.0,162,577696,-9999.0,578321,-9999.0,578349,-9999.0,578346,-9999.0,
1684327078153,578622,-9999.0,883610,0,2799279,-2799279,0.0,0.0,163,578894,-9999.0,578754,-9999.0,578955,-9999.0,579044,-9999.0,
1684327078163,579349,-9999.0,882320,0,2799279,-2799279,0.0,0.0,164,579531,-9999.0,579938,-9999.0,579751,-9999.0,579636,-9999.0,
1684327078173,579950,-9999.0,879458,0,2799279,-2799279,0.0,0.0,165,579663,-9999.0,579566,-9999.0,579698,-9999.0,579878,-9999.0,
1684327078183,579754,-9999.0,874371,0,2799279,-2799279,0.0,0.0,166,579749,-9999.0,579819,-9999.0,579859,-9999.0,579913,-9999.0,
